,record1
0,1332.2068010075566
1,1292.8657430730477
2,1270.3851385390428
3,1242.2843828715365
4,1201.5382871536524
5,1183.2727959697731
6,1194.5130982367757
7,1238.0692695214104
8,1285.8405541561713
9,1318.1564231738034
10,1339.2319899244333
11,1330.8017632241813
12,1283.0304785894205
13,1216.9937027707808
14,1224.0188916876573
15,1298.4858942065491
16,1415.1040302267002
17,1520.4818639798489
18,1596.3539042821158
19,1627.2647355163726
20,1624.454659949622
21,1590.7337531486146
22,1541.5574307304785
23,1512.051637279597
24,1482.5458438287153
25,1416.5090680100755
26,1354.6874055415617
27,1295.6758186397983
28,1249.309571788413
29,1239.4743073047857
30,1266.1700251889167
31,1280.2204030226699
32,1290.0556675062971
33,1295.6758186397983
34,1304.1060453400503
35,1337.826952141058
36,1387.0032745591939
37,1455.8501259445843
38,1489.5710327455918
39,1488.1659949622165
40,1465.6853904282116
41,1461.4702770780855
42,1457.2551637279596
43,1453.0400503778337
44,1468.4954659949622
45,1472.710579345088
46,1436.17959697733
47,1395.4335012594458
48,1368.7377833753148
49,1363.1176322418135
50,1343.4471032745591
51,1291.4607052896724
52,1239.4743073047857
53,1216.9937027707808
54,1193.1080604534004
55,1167.8173803526447
56,1148.1468513853904
57,1188.8929471032745
58,1264.7649874055414
59,1326.5866498740554
60,1378.5730478589421
61,1423.5342569269521
62,1444.6098236775817
63,1440.3947103274559
64,1417.9141057934507
65,1395.4335012594458
66,1379.9780856423174
67,1379.9780856423174
68,1372.9528967254407
69,1350.4722921914358
70,1315.3463476070528
71,1283.0304785894205
72,1268.9801007556675
73,1276.005289672544
74,1280.2204030226699
75,1273.1952141057934
76,1263.3599496221661
77,1268.9801007556675
78,1280.2204030226699
79,1298.4858942065491
80,1271.7901763224181
81,1221.2088161209067
82,1186.0828715365237
83,1163.6022670025188
84,1149.5518891687657
85,1143.9317380352645
86,1142.526700251889
87,1143.9317380352645
88,1156.5770780856424
89,1162.1972292191435
90,1174.8425692695214
91,1200.133249370277
92,1260.5498740554156
93,1343.4471032745591
94,1370.1428211586901
95,1358.9025188916876
96,1357.4974811083123
97,1365.9277078085643
98,1385.5982367758186
99,1415.1040302267002
100,1448.8249370277078
101,1506.4314861460957
102,1530.317128463476
103,1540.1523929471032
104,1562.6329974811083
105,1592.13879093199
106,1599.1639798488663
107,1590.7337531486146
108,1534.532241813602
109,1485.355919395466
110,1478.3307304785894
111,1486.7609571788412
112,1476.9256926952141
113,1447.4198992443323
114,1402.4586901763223
115,1367.3327455919396
116,1337.826952141058
117,1304.1060453400503
118,1259.1448362720403
119,1219.8037783375314
120,1200.133249370277
121,1187.4879093198992
122,1157.9821158690174
123,1143.9317380352645
124,1172.0324937027708
125,1221.2088161209067
126,1266.1700251889167
127,1326.5866498740554
128,1370.1428211586901
129,1396.8385390428211
130,1431.964483627204
131,1479.7357682619647
132,1530.317128463476
133,1542.9624685138538
134,1513.4566750629722
135,1454.445088161209
136,1402.4586901763223
137,1347.662216624685
138,1312.5362720403023
139,1288.6506297229218
140,1259.1448362720403
141,1205.7534005037783
142,1148.1468513853904
143,1136.9065491183878
144,1166.4123425692694
145,1193.1080604534004
146,1198.7282115869016
147,1202.9433249370277
148,1224.0188916876573
149,1232.4491183879093
150,1228.2340050377834
151,1194.5130982367757
152,1183.2727959697731
153,1194.5130982367757
154,1200.133249370277
155,1194.5130982367757
156,1204.348362720403
157,1246.4994962216624
158,1316.7513853904281
159,1377.1680100755666
160,1402.4586901763223
161,1416.5090680100755
162,1422.1292191435768
163,1424.9392947103274
164,1412.2939546599496
165,1382.788161209068
166,1361.7125944584382
167,1342.0420654911838
168,1335.0168765743072
169,1349.0672544080603
170,1388.4083123425692
171,1415.1040302267002
172,1410.8889168765743
173,1375.7629722921913
174,1333.6118387909319
175,1308.3211586901762
176,1288.6506297229218
177,1278.8153652392946
178,1291.4607052896724
179,1329.396725440806
180,1370.1428211586901
181,1378.5730478589421
182,1370.1428211586901
183,1372.9528967254407
184,1384.1931989924433
185,1402.4586901763223
186,1429.1544080604533
187,1448.8249370277078
188,1450.2299748110831
189,1438.9896725440806
190,1423.5342569269521
191,1396.8385390428211
192,1377.1680100755666
193,1375.7629722921913
194,1377.1680100755666
195,1372.9528967254407
196,1365.9277078085643
197,1371.5478589420654
198,1387.0032745591939
199,1413.6989924433249
200,1436.17959697733
201,1447.4198992443323
202,1465.6853904282116
203,1461.4702770780855
204,1451.6350125944584
205,1446.014861460957
206,1437.5846347607053
207,1416.5090680100755
208,1392.623425692695
209,1370.1428211586901
210,1358.9025188916876
211,1363.1176322418135
212,1353.2823677581864
213,1343.4471032745591
214,1387.0032745591939
215,1461.4702770780855
216,1519.0768261964736
217,1540.1523929471032
218,1528.9120906801006
219,1486.7609571788412
220,1440.3947103274559
221,1402.4586901763223
222,1379.9780856423174
223,1371.5478589420654
224,1347.662216624685
225,1322.3715365239293
226,1305.5110831234256
227,1312.5362720403023
228,1340.6370277078086
229,1406.6738035264484
230,1443.2047858942065
231,1450.2299748110831
232,1450.2299748110831
233,1455.8501259445843
234,1458.660201511335
235,1468.4954659949622
236,1471.3055415617127
237,1475.5206549118386
238,1467.0904282115869
239,1427.749370277078
240,1385.5982367758186
241,1360.3075566750629
242,1350.4722921914358
243,1365.9277078085643
244,1398.2435768261964
245,1413.6989924433249
246,1405.268765743073
247,1372.9528967254407
248,1346.2571788413097
249,1319.5614609571787
250,1297.0808564231738
251,1274.6002518891687
252,1259.1448362720403
253,1246.4994962216624
254,1273.1952141057934
255,1327.9916876574307
256,1379.9780856423174
257,1431.964483627204
258,1454.445088161209
259,1433.3695214105792
260,1387.0032745591939
261,1349.0672544080603
262,1333.6118387909319
263,1304.1060453400503
264,1239.4743073047857
265,1131.2863979848867
266,1023.0984886649874
267,948.6314861460957
268,910.6954659949621
269,916.3156171284634
270,973.9221662468512
271,1025.908564231738
272,1052.604282115869
273,1091.9453400503778
274,1149.5518891687657
275,1216.9937027707808
276,1291.4607052896724
277,1344.8521410579344
278,1378.5730478589421
279,1415.1040302267002
280,1446.014861460957
281,1420.7241813602013
282,1356.092443324937
283,1335.0168765743072
284,1342.0420654911838
285,1350.4722921914358
286,1356.092443324937
287,1379.9780856423174
288,1465.6853904282116
289,1617.4294710327456
290,1807.1095717884132
291,1933.5629722921913
292,1958.853652392947
293,1920.9176322418136
294,1839.4254408060453
295,1743.882871536524
296,1638.5050377833752
297,1519.0768261964736
298,1391.2183879093197
299,1252.1196473551636
300,1114.4259445843827
301,1009.0481108312342
302,990.7826196473551
303,1051.1992443324937
304,1113.0209068010074
305,1173.437531486146
306,1238.0692695214104
307,1292.8657430730477
308,1337.826952141058
309,1363.1176322418135
310,1384.1931989924433
311,1406.6738035264484
312,1427.749370277078
313,1437.5846347607053
314,1436.17959697733
315,1434.7745591939547
316,1433.3695214105792
317,1436.17959697733
318,1431.964483627204
319,1427.749370277078
320,1396.8385390428211
321,1329.396725440806
322,1254.9297229219142
323,1170.6274559193953
324,1149.5518891687657
325,1177.652644836272
326,1207.1584382871536
327,1214.18362720403
328,1180.4627204030226
329,1142.526700251889
330,1141.1216624685137
331,1155.1720403022669
332,1176.2476070528967
333,1236.6642317380351
334,1340.6370277078086
335,1462.875314861461
336,1534.532241813602
337,1528.9120906801006
338,1505.0264483627204
339,1498.0012594458437
340,1524.6969773299747
341,1561.227959697733
342,1575.2783375314862
343,1561.227959697733
344,1535.9372795969773
345,1485.355919395466
346,1437.5846347607053
347,1372.9528967254407
348,1319.5614609571787
349,1291.4607052896724
350,1264.7649874055414
351,1253.5246851385389
352,1264.7649874055414
353,1290.0556675062971
354,1294.270780856423
355,1270.3851385390428
356,1266.1700251889167
357,1281.6254408060454
358,1290.0556675062971
359,1308.3211586901762
360,1367.3327455919396
361,1409.483879093199
362,1415.1040302267002
363,1398.2435768261964
364,1364.5226700251887
365,1353.2823677581864
366,1364.5226700251887
367,1356.092443324937
368,1333.6118387909319
369,1297.0808564231738
370,1273.1952141057934
371,1225.4239294710328
372,1183.2727959697731
373,1163.6022670025188
374,1191.7030226700251
375,1250.7146095717883
376,1304.1060453400503
377,1336.4219143576825
378,1361.7125944584382
379,1371.5478589420654
380,1385.5982367758186
381,1389.8133501259445
382,1402.4586901763223
383,1441.7997481108312
384,1457.2551637279596
385,1454.445088161209
386,1438.9896725440806
387,1431.964483627204
388,1429.1544080604533
389,1416.5090680100755
390,1415.1040302267002
391,1402.4586901763223
392,1391.2183879093197
393,1384.1931989924433
394,1384.1931989924433
395,1384.1931989924433
396,1388.4083123425692
397,1387.0032745591939
398,1392.623425692695
399,1402.4586901763223
400,1402.4586901763223
401,1410.8889168765743
402,1403.8637279596976
403,1405.268765743073
404,1398.2435768261964
405,1389.8133501259445
406,1379.9780856423174
407,1367.3327455919396
408,1357.4974811083123
409,1353.2823677581864
410,1356.092443324937
411,1358.9025188916876
412,1350.4722921914358
413,1323.7765743073046
414,1304.1060453400503
415,1292.8657430730477
416,1285.8405541561713
417,1281.6254408060454
418,1287.2455919395466
419,1318.1564231738034
420,1363.1176322418135
421,1399.6486146095717
422,1413.6989924433249
423,1399.6486146095717
424,1350.4722921914358
425,1320.966498740554
426,1323.7765743073046
427,1344.8521410579344
428,1354.6874055415617
429,1379.9780856423174
430,1402.4586901763223
431,1415.1040302267002
432,1430.5594458438286
433,1441.7997481108312
434,1451.6350125944584
435,1462.875314861461
436,1465.6853904282116
437,1444.6098236775817
438,1423.5342569269521
439,1415.1040302267002
440,1416.5090680100755
441,1412.2939546599496
442,1416.5090680100755
443,1415.1040302267002
444,1408.0788413098237
445,1408.0788413098237
446,1427.749370277078
447,1444.6098236775817
448,1448.8249370277078
449,1436.17959697733
450,1416.5090680100755
451,1396.8385390428211
452,1388.4083123425692
453,1364.5226700251887
454,1340.6370277078086
455,1325.1816120906801
456,1318.1564231738034
457,1302.701007556675
458,1284.435516372796
459,1299.8909319899244
460,1336.4219143576825
461,1379.9780856423174
462,1401.053652392947
463,1401.053652392947
464,1375.7629722921913
465,1336.4219143576825
466,1330.8017632241813
467,1360.3075566750629
468,1367.3327455919396
469,1353.2823677581864
470,1339.2319899244333
471,1309.7261964735517
472,1287.2455919395466
473,1257.739798488665
474,1238.0692695214104
475,1242.2843828715365
476,1236.6642317380351
477,1221.2088161209067
478,1179.0576826196473
479,1156.5770780856424
480,1141.1216624685137
481,1153.7670025188916
482,1191.7030226700251
483,1236.6642317380351
484,1287.2455919395466
485,1344.8521410579344
486,1412.2939546599496
487,1465.6853904282116
488,1506.4314861460957
489,1540.1523929471032
490,1549.9876574307305
491,1537.3423173803526
492,1520.4818639798489
493,1489.5710327455918
494,1461.4702770780855
495,1446.014861460957
496,1406.6738035264484
497,1371.5478589420654
498,1347.662216624685
499,1340.6370277078086
500,1333.6118387909319
501,1325.1816120906801
502,1327.9916876574307
503,1336.4219143576825
504,1351.877329974811
505,1361.7125944584382
506,1377.1680100755666
507,1391.2183879093197
508,1399.6486146095717
509,1405.268765743073
510,1409.483879093199
511,1410.8889168765743
512,1410.8889168765743
513,1408.0788413098237
514,1419.319143576826
515,1423.5342569269521
516,1437.5846347607053
517,1440.3947103274559
518,1436.17959697733
519,1417.9141057934507
520,1384.1931989924433
521,1349.0672544080603
522,1316.7513853904281
523,1302.701007556675
524,1299.8909319899244
525,1298.4858942065491
526,1288.6506297229218
527,1274.6002518891687
528,1283.0304785894205
529,1304.1060453400503
530,1330.8017632241813
531,1350.4722921914358
532,1361.7125944584382
533,1361.7125944584382
534,1354.6874055415617
535,1357.4974811083123
536,1357.4974811083123
537,1363.1176322418135
538,1379.9780856423174
539,1374.357934508816
540,1367.3327455919396
541,1347.662216624685
542,1337.826952141058
543,1353.2823677581864
544,1381.3831234256927
545,1406.6738035264484
546,1417.9141057934507
547,1424.9392947103274
548,1433.3695214105792
549,1433.3695214105792
550,1419.319143576826
551,1406.6738035264484
552,1437.5846347607053
553,1474.1156171284633
554,1479.7357682619647
555,1437.5846347607053
556,1388.4083123425692
557,1356.092443324937
558,1351.877329974811
559,1351.877329974811
560,1358.9025188916876
561,1368.7377833753148
562,1360.3075566750629
563,1353.2823677581864
564,1356.092443324937
565,1356.092443324937
566,1330.8017632241813
567,1315.3463476070528
568,1308.3211586901762
569,1287.2455919395466
570,1270.3851385390428
571,1271.7901763224181
572,1274.6002518891687
573,1294.270780856423
574,1337.826952141058
575,1363.1176322418135
576,1365.9277078085643
577,1363.1176322418135
578,1370.1428211586901
579,1375.7629722921913
580,1381.3831234256927
581,1389.8133501259445
582,1389.8133501259445
583,1395.4335012594458
584,1408.0788413098237
585,1420.7241813602013
586,1415.1040302267002
587,1401.053652392947
588,1388.4083123425692
589,1375.7629722921913
590,1367.3327455919396
591,1364.5226700251887
592,1370.1428211586901
593,1372.9528967254407
594,1372.9528967254407
595,1378.5730478589421
596,1384.1931989924433
597,1378.5730478589421
598,1374.357934508816
599,1363.1176322418135
600,1357.4974811083123
601,1364.5226700251887
602,1368.7377833753148
603,1365.9277078085643
604,1358.9025188916876
605,1354.6874055415617
606,1349.0672544080603
607,1340.6370277078086
608,1322.3715365239293
609,1316.7513853904281
610,1320.966498740554
611,1351.877329974811
612,1396.8385390428211
613,1426.3443324937027
614,1441.7997481108312
615,1446.014861460957
616,1444.6098236775817
617,1441.7997481108312
618,1429.1544080604533
619,1413.6989924433249
620,1382.788161209068
621,1346.2571788413097
622,1308.3211586901762
623,1276.005289672544
624,1242.2843828715365
625,1212.778589420655
626,1215.5886649874055
627,1232.4491183879093
628,1239.4743073047857
629,1225.4239294710328
630,1229.6390428211587
631,1250.7146095717883
632,1273.1952141057934
633,1281.6254408060454
634,1299.8909319899244
635,1336.4219143576825
636,1382.788161209068
637,1403.8637279596976
638,1423.5342569269521
639,1451.6350125944584
640,1469.9005037783375
641,1471.3055415617127
642,1451.6350125944584
643,1451.6350125944584
644,1462.875314861461
645,1465.6853904282116
646,1455.8501259445843
647,1438.9896725440806
648,1424.9392947103274
649,1416.5090680100755
650,1410.8889168765743
651,1403.8637279596976
652,1415.1040302267002
653,1415.1040302267002
654,1406.6738035264484
655,1398.2435768261964
656,1392.623425692695
657,1382.788161209068
658,1379.9780856423174
659,1368.7377833753148
660,1337.826952141058
661,1333.6118387909319
662,1339.2319899244333
663,1343.4471032745591
664,1336.4219143576825
665,1298.4858942065491
666,1267.575062972292
667,1249.309571788413
668,1243.6894206549118
669,1233.8541561712846
670,1225.4239294710328
671,1211.3735516372794
672,1207.1584382871536
673,1224.0188916876573
674,1238.0692695214104
675,1260.5498740554156
676,1292.8657430730477
677,1315.3463476070528
678,1333.6118387909319
679,1330.8017632241813
680,1361.7125944584382
681,1395.4335012594458
682,1416.5090680100755
683,1429.1544080604533
684,1465.6853904282116
685,1499.406297229219
686,1527.5070528967253
687,1541.5574307304785
688,1528.9120906801006
689,1490.9760705289673
690,1450.2299748110831
691,1427.749370277078
692,1415.1040302267002
693,1409.483879093199
694,1406.6738035264484
695,1408.0788413098237
696,1426.3443324937027
697,1464.2803526448363
698,1485.355919395466
699,1478.3307304785894
700,1481.14080604534
701,1499.406297229219
702,1496.5962216624685
703,1465.6853904282116
704,1446.014861460957
705,1431.964483627204
706,1415.1040302267002
707,1403.8637279596976
708,1399.6486146095717
709,1401.053652392947
710,1394.0284634760706
711,1372.9528967254407
712,1351.877329974811
713,1344.8521410579344
714,1340.6370277078086
715,1339.2319899244333
716,1320.966498740554
717,1294.270780856423
718,1268.9801007556675
719,1231.044080604534
720,1194.5130982367757
721,1186.0828715365237
722,1222.613853904282
723,1260.5498740554156
724,1298.4858942065491
725,1340.6370277078086
726,1377.1680100755666
727,1427.749370277078
728,1464.2803526448363
729,1503.6214105793451
730,1519.0768261964736
731,1516.2667506297228
732,1520.4818639798489
733,1526.10201511335
734,1509.2415617128463
735,1467.0904282115869
736,1412.2939546599496
737,1382.788161209068
738,1398.2435768261964
739,1402.4586901763223
740,1402.4586901763223
741,1409.483879093199
742,1402.4586901763223
743,1433.3695214105792
744,1468.4954659949622
745,1471.3055415617127
746,1427.749370277078
747,1371.5478589420654
748,1326.5866498740554
749,1312.5362720403023
750,1320.966498740554
751,1327.9916876574307
752,1344.8521410579344
753,1360.3075566750629
754,1363.1176322418135
755,1346.2571788413097
756,1336.4219143576825
757,1336.4219143576825
758,1349.0672544080603
759,1357.4974811083123
760,1363.1176322418135
761,1365.9277078085643
762,1363.1176322418135
763,1365.9277078085643
764,1367.3327455919396
765,1370.1428211586901
766,1378.5730478589421
767,1377.1680100755666
768,1378.5730478589421
769,1378.5730478589421
770,1374.357934508816
771,1367.3327455919396
772,1364.5226700251887
773,1364.5226700251887
774,1370.1428211586901
775,1387.0032745591939
776,1402.4586901763223
777,1402.4586901763223
778,1395.4335012594458
779,1398.2435768261964
780,1399.6486146095717
781,1401.053652392947
782,1395.4335012594458
783,1385.5982367758186
784,1389.8133501259445
785,1405.268765743073
786,1410.8889168765743
787,1398.2435768261964
788,1365.9277078085643
789,1342.0420654911838
790,1306.9161209068009
791,1263.3599496221661
792,1247.9045340050377
793,1266.1700251889167
794,1294.270780856423
795,1319.5614609571787
796,1346.2571788413097
797,1358.9025188916876
798,1378.5730478589421
799,1410.8889168765743
800,1451.6350125944584
801,1472.710579345088
802,1486.7609571788412
803,1493.7861460957179
804,1495.1911838790932
805,1493.7861460957179
806,1461.4702770780855
807,1385.5982367758186
808,1306.9161209068009
809,1250.7146095717883
810,1197.3231738035263
811,1155.1720403022669
812,1138.3115869017631
813,1148.1468513853904
814,1179.0576826196473
815,1193.1080604534004
816,1197.3231738035263
817,1219.8037783375314
818,1257.739798488665
819,1291.4607052896724
820,1323.7765743073046
821,1353.2823677581864
822,1388.4083123425692
823,1410.8889168765743
824,1433.3695214105792
825,1460.0652392947102
826,1475.5206549118386
827,1467.0904282115869
828,1455.8501259445843
829,1450.2299748110831
830,1446.014861460957
831,1436.17959697733
832,1420.7241813602013
833,1396.8385390428211
834,1381.3831234256927
835,1374.357934508816
836,1365.9277078085643
837,1372.9528967254407
838,1396.8385390428211
839,1409.483879093199
840,1420.7241813602013
841,1419.319143576826
842,1402.4586901763223
843,1363.1176322418135
844,1327.9916876574307
845,1315.3463476070528
846,1305.5110831234256
847,1294.270780856423
848,1277.4103274559193
849,1261.9549118387908
850,1247.9045340050377
851,1222.613853904282
852,1215.5886649874055
853,1239.4743073047857
854,1263.3599496221661
855,1294.270780856423
856,1312.5362720403023
857,1342.0420654911838
858,1356.092443324937
859,1356.092443324937
860,1333.6118387909319
861,1320.966498740554
862,1330.8017632241813
863,1378.5730478589421
864,1433.3695214105792
865,1446.014861460957
866,1431.964483627204
867,1431.964483627204
868,1467.0904282115869
869,1505.0264483627204
870,1528.9120906801006
871,1527.5070528967253
872,1521.8869017632242
873,1514.8617128463475
874,1514.8617128463475
875,1505.0264483627204
876,1485.355919395466
877,1464.2803526448363
878,1453.0400503778337
879,1448.8249370277078
880,1453.0400503778337
881,1438.9896725440806
882,1423.5342569269521
883,1410.8889168765743
884,1406.6738035264484
885,1405.268765743073
886,1408.0788413098237
887,1406.6738035264484
888,1392.623425692695
889,1361.7125944584382
890,1330.8017632241813
891,1295.6758186397983
892,1273.1952141057934
893,1257.739798488665
894,1257.739798488665
895,1261.9549118387908
896,1252.1196473551636
897,1231.044080604534
898,1224.0188916876573
899,1225.4239294710328
900,1226.8289672544079
901,1219.8037783375314
902,1240.8793450881612
903,1274.6002518891687
904,1302.701007556675
905,1304.1060453400503
906,1305.5110831234256
907,1335.0168765743072
908,1389.8133501259445
909,1440.3947103274559
910,1486.7609571788412
911,1503.6214105793451
912,1505.0264483627204
913,1503.6214105793451
914,1486.7609571788412
915,1464.2803526448363
916,1474.1156171284633
917,1482.5458438287153
918,1479.7357682619647
919,1476.9256926952141
920,1478.3307304785894
921,1485.355919395466
922,1483.9508816120906
923,1468.4954659949622
924,1455.8501259445843
925,1451.6350125944584
926,1444.6098236775817
927,1450.2299748110831
928,1457.2551637279596
929,1454.445088161209
930,1451.6350125944584
931,1448.8249370277078
932,1431.964483627204
933,1408.0788413098237
934,1392.623425692695
935,1398.2435768261964
936,1409.483879093199
937,1403.8637279596976
938,1374.357934508816
939,1343.4471032745591
940,1333.6118387909319
941,1333.6118387909319
942,1339.2319899244333
943,1332.2068010075566
944,1327.9916876574307
945,1329.396725440806
946,1327.9916876574307
947,1342.0420654911838
948,1351.877329974811
949,1350.4722921914358
950,1356.092443324937
951,1360.3075566750629
952,1375.7629722921913
953,1358.9025188916876
954,1342.0420654911838
955,1339.2319899244333
956,1343.4471032745591
957,1340.6370277078086
958,1332.2068010075566
959,1325.1816120906801
960,1327.9916876574307
961,1337.826952141058
962,1361.7125944584382
963,1378.5730478589421
964,1375.7629722921913
965,1382.788161209068
966,1402.4586901763223
967,1419.319143576826
968,1440.3947103274559
969,1461.4702770780855
970,1483.9508816120906
971,1498.0012594458437
972,1496.5962216624685
973,1486.7609571788412
974,1475.5206549118386
975,1464.2803526448363
976,1430.5594458438286
977,1403.8637279596976
978,1405.268765743073
979,1438.9896725440806
980,1471.3055415617127
981,1493.7861460957179
982,1493.7861460957179
983,1467.0904282115869
984,1434.7745591939547
985,1412.2939546599496
986,1409.483879093199
987,1417.9141057934507
988,1423.5342569269521
989,1424.9392947103274
990,1410.8889168765743
991,1378.5730478589421
992,1336.4219143576825
993,1304.1060453400503
994,1276.005289672544
995,1233.8541561712846
996,1215.5886649874055
997,1209.9685138539041
998,1200.133249370277
999,1188.8929471032745
1000,1166.4123425692694
1001,1157.9821158690174
1002,1169.22241813602
1003,1179.0576826196473
1004,1181.8677581863979
1005,1172.0324937027708
1006,1159.387153652393
1007,1190.2979848866498
1008,1212.778589420655
1009,1225.4239294710328
1010,1243.6894206549118
1011,1249.309571788413
1012,1273.1952141057934
1013,1312.5362720403023
1014,1354.6874055415617
1015,1379.9780856423174
1016,1382.788161209068
1017,1381.3831234256927
1018,1394.0284634760706
1019,1415.1040302267002
1020,1444.6098236775817
1021,1468.4954659949622
1022,1483.9508816120906
1023,1478.3307304785894
1024,1475.5206549118386
1025,1471.3055415617127
1026,1460.0652392947102
1027,1446.014861460957
1028,1436.17959697733
1029,1430.5594458438286
1030,1430.5594458438286
1031,1429.1544080604533
1032,1423.5342569269521
1033,1410.8889168765743
1034,1392.623425692695
1035,1385.5982367758186
1036,1384.1931989924433
1037,1381.3831234256927
1038,1379.9780856423174
1039,1387.0032745591939
1040,1387.0032745591939
1041,1388.4083123425692
1042,1387.0032745591939
1043,1384.1931989924433
1044,1365.9277078085643
1045,1350.4722921914358
1046,1333.6118387909319
1047,1337.826952141058
1048,1336.4219143576825
1049,1333.6118387909319
1050,1330.8017632241813
1051,1322.3715365239293
1052,1320.966498740554
1053,1315.3463476070528
1054,1315.3463476070528
1055,1316.7513853904281
1056,1309.7261964735517
1057,1309.7261964735517
1058,1313.9413098236776
1059,1333.6118387909319
1060,1340.6370277078086
1061,1325.1816120906801
1062,1325.1816120906801
1063,1306.9161209068009
1064,1283.0304785894205
1065,1273.1952141057934
1066,1276.005289672544
1067,1281.6254408060454
1068,1285.8405541561713
1069,1301.2959697732997
1070,1325.1816120906801
1071,1349.0672544080603
1072,1370.1428211586901
1073,1395.4335012594458
1074,1427.749370277078
1075,1453.0400503778337
1076,1493.7861460957179
1077,1527.5070528967253
1078,1544.367506297229
1079,1538.747355163728
1080,1523.2919395465995
1081,1498.0012594458437
1082,1482.5458438287153
1083,1464.2803526448363
1084,1468.4954659949622
1085,1475.5206549118386
1086,1482.5458438287153
1087,1482.5458438287153
1088,1474.1156171284633
1089,1462.875314861461
1090,1454.445088161209
1091,1444.6098236775817
1092,1443.2047858942065
1093,1436.17959697733
1094,1434.7745591939547
1095,1429.1544080604533
1096,1422.1292191435768
1097,1401.053652392947
1098,1377.1680100755666
1099,1343.4471032745591
1100,1326.5866498740554
1101,1312.5362720403023
1102,1311.131234256927
1103,1320.966498740554
1104,1326.5866498740554
1105,1332.2068010075566
1106,1333.6118387909319
1107,1329.396725440806
1108,1346.2571788413097
1109,1371.5478589420654
1110,1395.4335012594458
1111,1395.4335012594458
1112,1370.1428211586901
1113,1347.662216624685
1114,1320.966498740554
1115,1266.1700251889167
1116,1225.4239294710328
1117,1226.8289672544079
1118,1249.309571788413
1119,1260.5498740554156
1120,1238.0692695214104
1121,1219.8037783375314
1122,1239.4743073047857
1123,1278.8153652392946
1124,1305.5110831234256
1125,1332.2068010075566
1126,1408.0788413098237
1127,1499.406297229219
1128,1551.3926952141057
1129,1582.3035264483626
1130,1575.2783375314862
1131,1566.8481108312342
1132,1559.8229219143577
1133,1557.012846347607
1134,1565.443073047859
1135,1569.6581863979848
1136,1569.6581863979848
1137,1566.8481108312342
1138,1557.012846347607
1139,1544.367506297229
1140,1526.10201511335
1141,1514.8617128463475
1142,1490.9760705289673
1143,1478.3307304785894
1144,1474.1156171284633
1145,1478.3307304785894
1146,1493.7861460957179
1147,1505.0264483627204
1148,1506.4314861460957
1149,1505.0264483627204
1150,1505.0264483627204
1151,1498.0012594458437
1152,1489.5710327455918
1153,1476.9256926952141
1154,1457.2551637279596
1155,1429.1544080604533
1156,1405.268765743073
1157,1382.788161209068
1158,1368.7377833753148
1159,1365.9277078085643
1160,1356.092443324937
1161,1340.6370277078086
1162,1326.5866498740554
1163,1332.2068010075566
1164,1337.826952141058
1165,1340.6370277078086
1166,1353.2823677581864
1167,1372.9528967254407
1168,1374.357934508816
1169,1378.5730478589421
1170,1382.788161209068
1171,1384.1931989924433
1172,1399.6486146095717
1173,1402.4586901763223
1174,1402.4586901763223
1175,1410.8889168765743
1176,1412.2939546599496
1177,1422.1292191435768
1178,1422.1292191435768
1179,1423.5342569269521
1180,1419.319143576826
1181,1422.1292191435768
1182,1416.5090680100755
1183,1419.319143576826
1184,1415.1040302267002
1185,1409.483879093199
1186,1403.8637279596976
1187,1395.4335012594458
1188,1392.623425692695
1189,1389.8133501259445
1190,1389.8133501259445
1191,1384.1931989924433
1192,1384.1931989924433
1193,1381.3831234256927
1194,1374.357934508816
1195,1372.9528967254407
1196,1371.5478589420654
1197,1372.9528967254407
1198,1372.9528967254407
1199,1374.357934508816
1200,1371.5478589420654
1201,1358.9025188916876
1202,1350.4722921914358
1203,1357.4974811083123
1204,1358.9025188916876
1205,1360.3075566750629
1206,1354.6874055415617
1207,1354.6874055415617
1208,1357.4974811083123
1209,1358.9025188916876
1210,1361.7125944584382
1211,1365.9277078085643
1212,1372.9528967254407
1213,1379.9780856423174
1214,1388.4083123425692
1215,1394.0284634760706
1216,1406.6738035264484
1217,1413.6989924433249
1218,1423.5342569269521
1219,1430.5594458438286
1220,1437.5846347607053
1221,1433.3695214105792
1222,1431.964483627204
1223,1427.749370277078
1224,1430.5594458438286
1225,1427.749370277078
1226,1422.1292191435768
1227,1409.483879093199
1228,1398.2435768261964
1229,1394.0284634760706
1230,1396.8385390428211
1231,1392.623425692695
1232,1374.357934508816
1233,1344.8521410579344
1234,1322.3715365239293
1235,1308.3211586901762
1236,1309.7261964735517
1237,1306.9161209068009
1238,1311.131234256927
1239,1322.3715365239293
1240,1325.1816120906801
1241,1337.826952141058
1242,1347.662216624685
1243,1363.1176322418135
1244,1378.5730478589421
1245,1387.0032745591939
1246,1391.2183879093197
1247,1375.7629722921913
1248,1363.1176322418135
1249,1360.3075566750629
1250,1371.5478589420654
1251,1374.357934508816
1252,1360.3075566750629
1253,1346.2571788413097
1254,1312.5362720403023
1255,1247.9045340050377
1256,1181.8677581863979
1257,1143.9317380352645
1258,1142.526700251889
1259,1162.1972292191435
1260,1190.2979848866498
1261,1225.4239294710328
1262,1250.7146095717883
1263,1271.7901763224181
1264,1271.7901763224181
1265,1287.2455919395466
1266,1329.396725440806
1267,1368.7377833753148
1268,1412.2939546599496
1269,1458.660201511335
1270,1506.4314861460957
1271,1554.2027707808563
1272,1596.3539042821158
1273,1618.834508816121
1274,1620.2395465994962
1275,1623.0496221662468
1276,1618.834508816121
1277,1630.0748110831234
1278,1642.720151133501
1279,1632.884886649874
1280,1618.834508816121
1281,1587.923677581864
1282,1559.8229219143577
1283,1530.317128463476
1284,1521.8869017632242
1285,1530.317128463476
1286,1537.3423173803526
1287,1523.2919395465995
1288,1506.4314861460957
1289,1495.1911838790932
1290,1493.7861460957179
1291,1485.355919395466
1292,1479.7357682619647
1293,1489.5710327455918
1294,1489.5710327455918
1295,1496.5962216624685
1296,1495.1911838790932
1297,1493.7861460957179
1298,1481.14080604534
1299,1471.3055415617127
1300,1462.875314861461
1301,1448.8249370277078
1302,1436.17959697733
1303,1427.749370277078
1304,1417.9141057934507
1305,1412.2939546599496
1306,1408.0788413098237
1307,1406.6738035264484
1308,1408.0788413098237
1309,1405.268765743073
1310,1408.0788413098237
1311,1408.0788413098237
1312,1405.268765743073
1313,1403.8637279596976
1314,1420.7241813602013
1315,1427.749370277078
1316,1440.3947103274559
1317,1454.445088161209
1318,1476.9256926952141
1319,1482.5458438287153
1320,1475.5206549118386
1321,1465.6853904282116
1322,1455.8501259445843
1323,1455.8501259445843
1324,1455.8501259445843
1325,1454.445088161209
1326,1455.8501259445843
1327,1453.0400503778337
1328,1451.6350125944584
1329,1454.445088161209
1330,1451.6350125944584
1331,1450.2299748110831
1332,1448.8249370277078
1333,1446.014861460957
1334,1446.014861460957
1335,1448.8249370277078
1336,1447.4198992443323
1337,1448.8249370277078
1338,1450.2299748110831
1339,1450.2299748110831
1340,1451.6350125944584
1341,1450.2299748110831
1342,1447.4198992443323
1343,1444.6098236775817
1344,1443.2047858942065
1345,1446.014861460957
1346,1441.7997481108312
1347,1441.7997481108312
1348,1438.9896725440806
1349,1438.9896725440806
1350,1440.3947103274559
1351,1437.5846347607053
1352,1444.6098236775817
1353,1436.17959697733
1354,1437.5846347607053
1355,1434.7745591939547
1356,1433.3695214105792
1357,1436.17959697733
1358,1433.3695214105792
1359,1436.17959697733
1360,1436.17959697733
1361,1429.1544080604533
1362,1429.1544080604533
1363,1427.749370277078
1364,1429.1544080604533
1365,1429.1544080604533
1366,1427.749370277078
1367,1427.749370277078
1368,1431.964483627204
1369,1430.5594458438286
1370,1436.17959697733
1371,1433.3695214105792
1372,1433.3695214105792
1373,1443.2047858942065
1374,1446.014861460957
1375,1447.4198992443323
1376,1447.4198992443323
1377,1446.014861460957
1378,1444.6098236775817
1379,1440.3947103274559
1380,1441.7997481108312
1381,1443.2047858942065
1382,1440.3947103274559
1383,1437.5846347607053
1384,1440.3947103274559
1385,1437.5846347607053
1386,1434.7745591939547
1387,1438.9896725440806
1388,1430.5594458438286
1389,1430.5594458438286
1390,1430.5594458438286
1391,1433.3695214105792
1392,1433.3695214105792
1393,1430.5594458438286
1394,1430.5594458438286
1395,1426.3443324937027
1396,1426.3443324937027
1397,1429.1544080604533
1398,1423.5342569269521
1399,1424.9392947103274
1400,1426.3443324937027
1401,1429.1544080604533
1402,1426.3443324937027
1403,1427.749370277078
1404,1423.5342569269521
1405,1419.319143576826
1406,1416.5090680100755
1407,1410.8889168765743
1408,1416.5090680100755
1409,1415.1040302267002
1410,1412.2939546599496
1411,1408.0788413098237
1412,1405.268765743073
1413,1406.6738035264484
1414,1406.6738035264484
1415,1406.6738035264484
1416,1405.268765743073
1417,1405.268765743073
1418,1405.268765743073
1419,1405.268765743073
1420,1403.8637279596976
1421,1405.268765743073
1422,1403.8637279596976
1423,1403.8637279596976
1424,1402.4586901763223
1425,1405.268765743073
1426,1406.6738035264484
1427,1401.053652392947
1428,1399.6486146095717
1429,1399.6486146095717
1430,1395.4335012594458
1431,1395.4335012594458
1432,1396.8385390428211
1433,1408.0788413098237
1434,1412.2939546599496
1435,1415.1040302267002
1436,1416.5090680100755
1437,1415.1040302267002
1438,1415.1040302267002
1439,1410.8889168765743
1440,1408.0788413098237
1441,1398.2435768261964
1442,1392.623425692695
1443,1392.623425692695
1444,1392.623425692695
1445,1389.8133501259445
1446,1388.4083123425692
1447,1391.2183879093197
1448,1398.2435768261964
1449,1395.4335012594458
1450,1392.623425692695
1451,1395.4335012594458
1452,1388.4083123425692
1453,1389.8133501259445
1454,1384.1931989924433
1455,1381.3831234256927
1456,1388.4083123425692
1457,1389.8133501259445
1458,1385.5982367758186
1459,1363.1176322418135
1460,1335.0168765743072
1461,1311.131234256927
1462,1294.270780856423
1463,1295.6758186397983
1464,1305.5110831234256
1465,1316.7513853904281
1466,1332.2068010075566
1467,1351.877329974811
1468,1378.5730478589421
1469,1406.6738035264484
1470,1426.3443324937027
1471,1427.749370277078
1472,1433.3695214105792
1473,1436.17959697733
1474,1433.3695214105792
1475,1423.5342569269521
1476,1426.3443324937027
1477,1440.3947103274559
1478,1464.2803526448363
1479,1479.7357682619647
1480,1485.355919395466
1481,1479.7357682619647
1482,1469.9005037783375
1483,1458.660201511335
1484,1451.6350125944584
1485,1457.2551637279596
1486,1454.445088161209
1487,1451.6350125944584
1488,1451.6350125944584
1489,1454.445088161209
1490,1455.8501259445843
1491,1457.2551637279596
1492,1458.660201511335
1493,1458.660201511335
1494,1462.875314861461
1495,1457.2551637279596
1496,1453.0400503778337
1497,1447.4198992443323
1498,1444.6098236775817
1499,1440.3947103274559
1500,1433.3695214105792
1501,1419.319143576826
1502,1412.2939546599496
1503,1401.053652392947
1504,1396.8385390428211
1505,1388.4083123425692
1506,1392.623425692695
1507,1389.8133501259445
1508,1385.5982367758186
1509,1392.623425692695
1510,1388.4083123425692
1511,1387.0032745591939
1512,1379.9780856423174
1513,1381.3831234256927
1514,1368.7377833753148
1515,1356.092443324937
1516,1335.0168765743072
1517,1312.5362720403023
1518,1291.4607052896724
1519,1277.4103274559193
1520,1273.1952141057934
1521,1281.6254408060454
1522,1297.0808564231738
1523,1312.5362720403023
1524,1333.6118387909319
1525,1356.092443324937
1526,1371.5478589420654
1527,1385.5982367758186
1528,1402.4586901763223
1529,1419.319143576826
1530,1436.17959697733
1531,1454.445088161209
1532,1482.5458438287153
1533,1500.8113350125943
1534,1519.0768261964736
1535,1544.367506297229
1536,1559.8229219143577
1537,1571.06322418136
1538,1573.8732997481109
1539,1568.2531486146095
1540,1554.2027707808563
1541,1542.9624685138538
1542,1527.5070528967253
1543,1513.4566750629722
1544,1502.2163727959696
1545,1489.5710327455918
1546,1490.9760705289673
1547,1489.5710327455918
1548,1488.1659949622165
1549,1485.355919395466
1550,1481.14080604534
1551,1478.3307304785894
1552,1481.14080604534
1553,1474.1156171284633
1554,1469.9005037783375
1555,1468.4954659949622
1556,1467.0904282115869
1557,1464.2803526448363
1558,1461.4702770780855
1559,1457.2551637279596
1560,1453.0400503778337
1561,1454.445088161209
1562,1455.8501259445843
1563,1454.445088161209
1564,1448.8249370277078
1565,1451.6350125944584
1566,1447.4198992443323
1567,1446.014861460957
1568,1441.7997481108312
1569,1444.6098236775817
1570,1441.7997481108312
1571,1444.6098236775817
1572,1437.5846347607053
1573,1438.9896725440806
1574,1437.5846347607053
1575,1436.17959697733
1576,1436.17959697733
1577,1438.9896725440806
1578,1436.17959697733
1579,1436.17959697733
1580,1440.3947103274559
1581,1440.3947103274559
1582,1433.3695214105792
1583,1434.7745591939547
1584,1441.7997481108312
1585,1434.7745591939547
1586,1436.17959697733
1587,1433.3695214105792
1588,1436.17959697733
1589,1436.17959697733
1590,1437.5846347607053
1591,1430.5594458438286
1592,1436.17959697733
1593,1438.9896725440806
1594,1438.9896725440806
1595,1438.9896725440806
1596,1440.3947103274559
1597,1434.7745591939547
1598,1437.5846347607053
1599,1431.964483627204
1600,1437.5846347607053
1601,1434.7745591939547
1602,1438.9896725440806
1603,1437.5846347607053
1604,1429.1544080604533
1605,1427.749370277078
1606,1426.3443324937027
1607,1429.1544080604533
1608,1430.5594458438286
1609,1427.749370277078
1610,1430.5594458438286
1611,1431.964483627204
1612,1431.964483627204
1613,1430.5594458438286
1614,1433.3695214105792
1615,1427.749370277078
1616,1429.1544080604533
1617,1433.3695214105792
1618,1433.3695214105792
1619,1434.7745591939547
1620,1433.3695214105792
1621,1434.7745591939547
1622,1436.17959697733
1623,1430.5594458438286
1624,1434.7745591939547
1625,1431.964483627204
1626,1431.964483627204
1627,1433.3695214105792
1628,1433.3695214105792
1629,1431.964483627204
1630,1440.3947103274559
1631,1440.3947103274559
1632,1441.7997481108312
1633,1440.3947103274559
1634,1440.3947103274559
1635,1440.3947103274559
1636,1440.3947103274559
1637,1446.014861460957
1638,1448.8249370277078
1639,1451.6350125944584
1640,1455.8501259445843
1641,1454.445088161209
1642,1461.4702770780855
1643,1465.6853904282116
1644,1464.2803526448363
1645,1468.4954659949622
1646,1462.875314861461
1647,1464.2803526448363
1648,1458.660201511335
1649,1453.0400503778337
1650,1455.8501259445843
1651,1457.2551637279596
1652,1455.8501259445843
1653,1455.8501259445843
1654,1453.0400503778337
1655,1450.2299748110831
1656,1450.2299748110831
1657,1450.2299748110831
1658,1448.8249370277078
1659,1448.8249370277078
1660,1441.7997481108312
1661,1451.6350125944584
1662,1447.4198992443323
1663,1446.014861460957
1664,1441.7997481108312
1665,1441.7997481108312
1666,1438.9896725440806
1667,1441.7997481108312
1668,1433.3695214105792
1669,1440.3947103274559
1670,1438.9896725440806
1671,1446.014861460957
1672,1450.2299748110831
1673,1451.6350125944584
1674,1453.0400503778337
1675,1461.4702770780855
1676,1461.4702770780855
1677,1460.0652392947102
1678,1461.4702770780855
1679,1455.8501259445843
1680,1454.445088161209
1681,1457.2551637279596
1682,1458.660201511335
1683,1467.0904282115869
1684,1462.875314861461
1685,1464.2803526448363
1686,1464.2803526448363
1687,1467.0904282115869
1688,1461.4702770780855
1689,1462.875314861461
1690,1462.875314861461
1691,1467.0904282115869
1692,1468.4954659949622
1693,1467.0904282115869
1694,1468.4954659949622
1695,1471.3055415617127
1696,1478.3307304785894
1697,1478.3307304785894
1698,1479.7357682619647
1699,1481.14080604534
1700,1481.14080604534
1701,1478.3307304785894
1702,1476.9256926952141
1703,1481.14080604534
1704,1482.5458438287153
1705,1485.355919395466
1706,1490.9760705289673
1707,1476.9256926952141
1708,1486.7609571788412
1709,1486.7609571788412
1710,1490.9760705289673
1711,1489.5710327455918
1712,1493.7861460957179
1713,1493.7861460957179
1714,1496.5962216624685
1715,1500.8113350125943
1716,1496.5962216624685
1717,1498.0012594458437
1718,1498.0012594458437
1719,1500.8113350125943
1720,1502.2163727959696
1721,1503.6214105793451
1722,1506.4314861460957
1723,1510.6465994962216
1724,1510.6465994962216
1725,1510.6465994962216
1726,1513.4566750629722
1727,1513.4566750629722
1728,1506.4314861460957
1729,1509.2415617128463
1730,1507.836523929471
1731,1512.051637279597
1732,1512.051637279597
1733,1509.2415617128463
1734,1512.051637279597
1735,1514.8617128463475
1736,1513.4566750629722
1737,1512.051637279597
1738,1516.2667506297228
1739,1516.2667506297228
1740,1517.6717884130983
1741,1514.8617128463475
1742,1513.4566750629722
1743,1514.8617128463475
1744,1517.6717884130983
1745,1517.6717884130983
1746,1520.4818639798489
1747,1521.8869017632242
1748,1520.4818639798489
1749,1521.8869017632242
1750,1527.5070528967253
1751,1523.2919395465995
1752,1526.10201511335
1753,1526.10201511335
1754,1526.10201511335
1755,1527.5070528967253
1756,1527.5070528967253
1757,1530.317128463476
1758,1528.9120906801006
1759,1530.317128463476
1760,1530.317128463476
1761,1531.7221662468514
1762,1531.7221662468514
1763,1531.7221662468514
1764,1533.1272040302267
1765,1533.1272040302267
1766,1535.9372795969773
1767,1538.747355163728
1768,1540.1523929471032
1769,1538.747355163728
1770,1540.1523929471032
1771,1538.747355163728
1772,1542.9624685138538
1773,1547.1775818639799
1774,1545.7725440806046
1775,1545.7725440806046
1776,1541.5574307304785
1777,1547.1775818639799
1778,1548.5826196473552
1779,1547.1775818639799
1780,1549.9876574307305
1781,1545.7725440806046
1782,1544.367506297229
1783,1541.5574307304785
1784,1542.9624685138538
1785,1540.1523929471032
1786,1541.5574307304785
1787,1541.5574307304785
1788,1541.5574307304785
1789,1534.532241813602
1790,1535.9372795969773
1791,1535.9372795969773
1792,1535.9372795969773
1793,1542.9624685138538
1794,1541.5574307304785
1795,1542.9624685138538
1796,1545.7725440806046
1797,1544.367506297229
1798,1545.7725440806046
1799,1544.367506297229
1800,1542.9624685138538
1801,1547.1775818639799
1802,1545.7725440806046
1803,1542.9624685138538
1804,1549.9876574307305
1805,1548.5826196473552
1806,1551.3926952141057
1807,1552.797732997481
1808,1555.6078085642316
1809,1558.4178841309822
1810,1561.227959697733
1811,1561.227959697733
1812,1561.227959697733
1813,1564.0380352644836
1814,1564.0380352644836
1815,1564.0380352644836
1816,1559.8229219143577
1817,1554.2027707808563
1818,1555.6078085642316
1819,1557.012846347607
1820,1554.2027707808563
1821,1554.2027707808563
1822,1551.3926952141057
1823,1558.4178841309822
1824,1552.797732997481
1825,1557.012846347607
1826,1557.012846347607
1827,1564.0380352644836
1828,1565.443073047859
1829,1565.443073047859
1830,1566.8481108312342
1831,1569.6581863979848
1832,1575.2783375314862
1833,1573.8732997481109
1834,1572.4682619647356
1835,1573.8732997481109
1836,1569.6581863979848
1837,1571.06322418136
1838,1575.2783375314862
1839,1572.4682619647356
1840,1569.6581863979848
1841,1571.06322418136
1842,1569.6581863979848
1843,1569.6581863979848
1844,1569.6581863979848
1845,1566.8481108312342
1846,1564.0380352644836
1847,1564.0380352644836
1848,1554.2027707808563
1849,1562.6329974811083
1850,1558.4178841309822
1851,1558.4178841309822
1852,1558.4178841309822
1853,1561.227959697733
1854,1564.0380352644836
1855,1561.227959697733
1856,1558.4178841309822
1857,1551.3926952141057
1858,1548.5826196473552
1859,1548.5826196473552
1860,1547.1775818639799
1861,1545.7725440806046
1862,1551.3926952141057
1863,1552.797732997481
1864,1542.9624685138538
1865,1549.9876574307305
1866,1547.1775818639799
1867,1542.9624685138538
1868,1540.1523929471032
1869,1540.1523929471032
1870,1538.747355163728
1871,1540.1523929471032
1872,1538.747355163728
1873,1538.747355163728
1874,1535.9372795969773
1875,1531.7221662468514
1876,1527.5070528967253
1877,1531.7221662468514
1878,1533.1272040302267
1879,1534.532241813602
1880,1533.1272040302267
1881,1538.747355163728
1882,1538.747355163728
1883,1533.1272040302267
1884,1534.532241813602
1885,1540.1523929471032
1886,1538.747355163728
1887,1538.747355163728
1888,1547.1775818639799
1889,1541.5574307304785
1890,1538.747355163728
1891,1534.532241813602
1892,1540.1523929471032
1893,1535.9372795969773
1894,1541.5574307304785
1895,1542.9624685138538
1896,1531.7221662468514
1897,1544.367506297229
1898,1545.7725440806046
1899,1549.9876574307305
1900,1552.797732997481
1901,1548.5826196473552
1902,1552.797732997481
1903,1552.797732997481
1904,1557.012846347607
1905,1555.6078085642316
1906,1549.9876574307305
1907,1547.1775818639799
1908,1542.9624685138538
1909,1545.7725440806046
1910,1541.5574307304785
1911,1538.747355163728
1912,1540.1523929471032
1913,1538.747355163728
1914,1544.367506297229
1915,1547.1775818639799
1916,1547.1775818639799
1917,1551.3926952141057
1918,1551.3926952141057
1919,1554.2027707808563
1920,1557.012846347607
1921,1558.4178841309822
1922,1554.2027707808563
1923,1549.9876574307305
1924,1552.797732997481
1925,1548.5826196473552
1926,1548.5826196473552
1927,1545.7725440806046
1928,1540.1523929471032
1929,1535.9372795969773
1930,1533.1272040302267
1931,1533.1272040302267
1932,1531.7221662468514
1933,1530.317128463476
1934,1524.6969773299747
1935,1521.8869017632242
1936,1530.317128463476
1937,1531.7221662468514
1938,1533.1272040302267
1939,1534.532241813602
1940,1534.532241813602
1941,1535.9372795969773
1942,1533.1272040302267
1943,1534.532241813602
1944,1533.1272040302267
1945,1527.5070528967253
1946,1527.5070528967253
1947,1526.10201511335
1948,1530.317128463476
1949,1531.7221662468514
1950,1531.7221662468514
1951,1527.5070528967253
1952,1533.1272040302267
1953,1530.317128463476
1954,1531.7221662468514
1955,1530.317128463476
1956,1530.317128463476
1957,1527.5070528967253
1958,1527.5070528967253
1959,1526.10201511335
1960,1527.5070528967253
1961,1524.6969773299747
1962,1523.2919395465995
1963,1523.2919395465995
1964,1517.6717884130983
1965,1520.4818639798489
1966,1519.0768261964736
1967,1517.6717884130983
1968,1517.6717884130983
1969,1519.0768261964736
1970,1520.4818639798489
1971,1521.8869017632242
1972,1521.8869017632242
1973,1526.10201511335
1974,1520.4818639798489
1975,1520.4818639798489
1976,1523.2919395465995
1977,1523.2919395465995
1978,1517.6717884130983
1979,1520.4818639798489
1980,1517.6717884130983
1981,1524.6969773299747
1982,1519.0768261964736
1983,1523.2919395465995
1984,1520.4818639798489
1985,1519.0768261964736
1986,1516.2667506297228
1987,1519.0768261964736
1988,1523.2919395465995
1989,1523.2919395465995
1990,1524.6969773299747
1991,1523.2919395465995
1992,1521.8869017632242
1993,1523.2919395465995
1994,1531.7221662468514
1995,1538.747355163728
1996,1540.1523929471032
1997,1541.5574307304785
1998,1547.1775818639799
1999,1540.1523929471032
2000,1541.5574307304785
2001,1540.1523929471032
2002,1535.9372795969773
2003,1537.3423173803526
2004,1538.747355163728
2005,1535.9372795969773
2006,1530.317128463476
2007,1534.532241813602
2008,1533.1272040302267
2009,1534.532241813602
2010,1535.9372795969773
2011,1527.5070528967253
2012,1530.317128463476
2013,1520.4818639798489
2014,1523.2919395465995
2015,1520.4818639798489
2016,1520.4818639798489
2017,1523.2919395465995
2018,1520.4818639798489
2019,1521.8869017632242
2020,1523.2919395465995
2021,1519.0768261964736
2022,1517.6717884130983
2023,1516.2667506297228
2024,1520.4818639798489
2025,1517.6717884130983
2026,1516.2667506297228
2027,1517.6717884130983
2028,1517.6717884130983
2029,1517.6717884130983
2030,1516.2667506297228
2031,1519.0768261964736
2032,1517.6717884130983
2033,1513.4566750629722
2034,1516.2667506297228
2035,1517.6717884130983
2036,1517.6717884130983
2037,1514.8617128463475
2038,1519.0768261964736
2039,1517.6717884130983
2040,1519.0768261964736
2041,1523.2919395465995
2042,1519.0768261964736
2043,1520.4818639798489
2044,1520.4818639798489
2045,1516.2667506297228
2046,1520.4818639798489
2047,1520.4818639798489
2048,1523.2919395465995
2049,1517.6717884130983
2050,1524.6969773299747
2051,1528.9120906801006
2052,1528.9120906801006
2053,1523.2919395465995
2054,1530.317128463476
2055,1533.1272040302267
2056,1535.9372795969773
2057,1541.5574307304785
2058,1540.1523929471032
2059,1544.367506297229
2060,1545.7725440806046
2061,1549.9876574307305
2062,1548.5826196473552
2063,1551.3926952141057
2064,1554.2027707808563
2065,1552.797732997481
2066,1551.3926952141057
2067,1557.012846347607
2068,1555.6078085642316
2069,1558.4178841309822
2070,1554.2027707808563
2071,1557.012846347607
2072,1551.3926952141057
2073,1544.367506297229
2074,1537.3423173803526
2075,1527.5070528967253
2076,1524.6969773299747
2077,1523.2919395465995
2078,1517.6717884130983
2079,1514.8617128463475
2080,1517.6717884130983
2081,1519.0768261964736
2082,1514.8617128463475
2083,1512.051637279597
2084,1513.4566750629722
2085,1502.2163727959696
2086,1500.8113350125943
2087,1503.6214105793451
2088,1500.8113350125943
2089,1498.0012594458437
2090,1496.5962216624685
2091,1489.5710327455918
2092,1493.7861460957179
2093,1490.9760705289673
2094,1490.9760705289673
2095,1490.9760705289673
2096,1492.3811083123426
2097,1488.1659949622165
2098,1488.1659949622165
2099,1485.355919395466
2100,1488.1659949622165
2101,1490.9760705289673
2102,1490.9760705289673
2103,1486.7609571788412
2104,1483.9508816120906
2105,1482.5458438287153
2106,1479.7357682619647
2107,1481.14080604534
2108,1478.3307304785894
2109,1478.3307304785894
2110,1475.5206549118386
2111,1475.5206549118386
2112,1478.3307304785894
2113,1478.3307304785894
2114,1481.14080604534
2115,1486.7609571788412
2116,1481.14080604534
2117,1483.9508816120906
2118,1493.7861460957179
2119,1492.3811083123426
2120,1495.1911838790932
2121,1495.1911838790932
2122,1499.406297229219
2123,1495.1911838790932
2124,1503.6214105793451
2125,1507.836523929471
2126,1507.836523929471
2127,1507.836523929471
2128,1498.0012594458437
2129,1495.1911838790932
2130,1499.406297229219
2131,1495.1911838790932
2132,1495.1911838790932
2133,1495.1911838790932
2134,1498.0012594458437
2135,1495.1911838790932
2136,1496.5962216624685
2137,1493.7861460957179
2138,1492.3811083123426
2139,1492.3811083123426
2140,1492.3811083123426
2141,1493.7861460957179
2142,1493.7861460957179
2143,1495.1911838790932
2144,1493.7861460957179
2145,1498.0012594458437
2146,1500.8113350125943
2147,1499.406297229219
2148,1498.0012594458437
2149,1496.5962216624685
2150,1498.0012594458437
2151,1498.0012594458437
2152,1495.1911838790932
2153,1492.3811083123426
2154,1492.3811083123426
2155,1493.7861460957179
2156,1496.5962216624685
2157,1495.1911838790932
2158,1493.7861460957179
2159,1498.0012594458437
2160,1493.7861460957179
2161,1496.5962216624685
2162,1489.5710327455918
2163,1496.5962216624685
2164,1493.7861460957179
2165,1495.1911838790932
2166,1496.5962216624685
2167,1498.0012594458437
2168,1493.7861460957179
2169,1493.7861460957179
2170,1490.9760705289673
2171,1496.5962216624685
2172,1496.5962216624685
2173,1498.0012594458437
2174,1498.0012594458437
2175,1495.1911838790932
2176,1495.1911838790932
2177,1495.1911838790932
2178,1493.7861460957179
2179,1500.8113350125943
2180,1498.0012594458437
2181,1495.1911838790932
2182,1472.710579345088
2183,1498.0012594458437
2184,1493.7861460957179
2185,1495.1911838790932
2186,1503.6214105793451
2187,1495.1911838790932
2188,1499.406297229219
2189,1496.5962216624685
2190,1490.9760705289673
2191,1499.406297229219
2192,1496.5962216624685
2193,1493.7861460957179
2194,1483.9508816120906
2195,1495.1911838790932
2196,1490.9760705289673
2197,1490.9760705289673
2198,1489.5710327455918
2199,1485.355919395466
2200,1488.1659949622165
2201,1485.355919395466
2202,1486.7609571788412
2203,1485.355919395466
2204,1486.7609571788412
2205,1489.5710327455918
2206,1485.355919395466
2207,1488.1659949622165
2208,1489.5710327455918
2209,1485.355919395466
2210,1490.9760705289673
2211,1485.355919395466
2212,1488.1659949622165
2213,1486.7609571788412
2214,1489.5710327455918
2215,1485.355919395466
2216,1489.5710327455918
2217,1486.7609571788412
2218,1495.1911838790932
2219,1490.9760705289673
2220,1490.9760705289673
2221,1490.9760705289673
2222,1492.3811083123426
2223,1496.5962216624685
2224,1500.8113350125943
2225,1503.6214105793451
2226,1503.6214105793451
2227,1500.8113350125943
2228,1502.2163727959696
2229,1502.2163727959696
2230,1507.836523929471
2231,1509.2415617128463
2232,1509.2415617128463
2233,1509.2415617128463
2234,1512.051637279597
2235,1506.4314861460957
2236,1507.836523929471
2237,1510.6465994962216
2238,1507.836523929471
2239,1506.4314861460957
2240,1506.4314861460957
2241,1505.0264483627204
2242,1503.6214105793451
2243,1496.5962216624685
2244,1489.5710327455918
2245,1486.7609571788412
2246,1485.355919395466
2247,1481.14080604534
2248,1479.7357682619647
2249,1471.3055415617127
2250,1471.3055415617127
2251,1474.1156171284633
2252,1474.1156171284633
2253,1476.9256926952141
2254,1476.9256926952141
2255,1475.5206549118386
2256,1475.5206549118386
2257,1478.3307304785894
2258,1483.9508816120906
2259,1485.355919395466
2260,1486.7609571788412
2261,1488.1659949622165
2262,1488.1659949622165
2263,1486.7609571788412
2264,1479.7357682619647
2265,1482.5458438287153
2266,1476.9256926952141
2267,1475.5206549118386
2268,1469.9005037783375
2269,1474.1156171284633
2270,1475.5206549118386
2271,1478.3307304785894
2272,1482.5458438287153
2273,1478.3307304785894
2274,1481.14080604534
2275,1478.3307304785894
2276,1478.3307304785894
2277,1478.3307304785894
2278,1474.1156171284633
2279,1475.5206549118386
2280,1476.9256926952141
2281,1483.9508816120906
2282,1481.14080604534
2283,1476.9256926952141
2284,1478.3307304785894
2285,1479.7357682619647
2286,1481.14080604534
2287,1482.5458438287153
2288,1481.14080604534
2289,1482.5458438287153
2290,1486.7609571788412
2291,1479.7357682619647
2292,1488.1659949622165
2293,1485.355919395466
2294,1483.9508816120906
2295,1479.7357682619647
2296,1483.9508816120906
2297,1483.9508816120906
2298,1483.9508816120906
2299,1486.7609571788412
2300,1482.5458438287153
2301,1479.7357682619647
2302,1485.355919395466
2303,1485.355919395466
2304,1483.9508816120906
2305,1486.7609571788412
2306,1485.355919395466
2307,1482.5458438287153
2308,1486.7609571788412
2309,1492.3811083123426
2310,1492.3811083123426
2311,1492.3811083123426
2312,1489.5710327455918
2313,1490.9760705289673
2314,1495.1911838790932
2315,1490.9760705289673
2316,1493.7861460957179
2317,1493.7861460957179
2318,1498.0012594458437
2319,1486.7609571788412
2320,1499.406297229219
2321,1498.0012594458437
2322,1499.406297229219
2323,1499.406297229219
2324,1496.5962216624685
2325,1499.406297229219
2326,1500.8113350125943
2327,1502.2163727959696
2328,1500.8113350125943
2329,1498.0012594458437
2330,1500.8113350125943
2331,1500.8113350125943
2332,1500.8113350125943
2333,1498.0012594458437
2334,1502.2163727959696
2335,1499.406297229219
2336,1502.2163727959696
2337,1500.8113350125943
2338,1502.2163727959696
2339,1502.2163727959696
2340,1503.6214105793451
2341,1505.0264483627204
2342,1500.8113350125943
2343,1502.2163727959696
2344,1505.0264483627204
2345,1505.0264483627204
2346,1500.8113350125943
2347,1502.2163727959696
2348,1500.8113350125943
2349,1503.6214105793451
2350,1506.4314861460957
2351,1506.4314861460957
2352,1503.6214105793451
2353,1503.6214105793451
2354,1502.2163727959696
2355,1502.2163727959696
2356,1503.6214105793451
2357,1502.2163727959696
2358,1505.0264483627204
2359,1506.4314861460957
2360,1502.2163727959696
2361,1502.2163727959696
2362,1503.6214105793451
2363,1500.8113350125943
2364,1502.2163727959696
2365,1503.6214105793451
2366,1500.8113350125943
2367,1499.406297229219
2368,1499.406297229219
2369,1499.406297229219
2370,1502.2163727959696
2371,1500.8113350125943
2372,1506.4314861460957
2373,1503.6214105793451
2374,1506.4314861460957
2375,1503.6214105793451
2376,1502.2163727959696
2377,1503.6214105793451
2378,1506.4314861460957
2379,1506.4314861460957
2380,1503.6214105793451
2381,1505.0264483627204
2382,1503.6214105793451
2383,1503.6214105793451
2384,1502.2163727959696
2385,1506.4314861460957
2386,1502.2163727959696
2387,1505.0264483627204
2388,1506.4314861460957
2389,1506.4314861460957
2390,1507.836523929471
2391,1507.836523929471
2392,1506.4314861460957
2393,1510.6465994962216
2394,1505.0264483627204
2395,1506.4314861460957
2396,1505.0264483627204
2397,1506.4314861460957
2398,1500.8113350125943
2399,1502.2163727959696
2400,1505.0264483627204
2401,1507.836523929471
2402,1505.0264483627204
2403,1506.4314861460957
2404,1507.836523929471
2405,1507.836523929471
2406,1505.0264483627204
2407,1507.836523929471
2408,1505.0264483627204
2409,1505.0264483627204
2410,1505.0264483627204
2411,1507.836523929471
2412,1509.2415617128463
2413,1513.4566750629722
2414,1506.4314861460957
2415,1509.2415617128463
2416,1509.2415617128463
2417,1509.2415617128463
2418,1503.6214105793451
2419,1505.0264483627204
2420,1510.6465994962216
2421,1506.4314861460957
2422,1509.2415617128463
2423,1505.0264483627204
2424,1509.2415617128463
2425,1509.2415617128463
2426,1509.2415617128463
2427,1510.6465994962216
2428,1507.836523929471
2429,1510.6465994962216
2430,1506.4314861460957
2431,1512.051637279597
2432,1506.4314861460957
2433,1507.836523929471
2434,1509.2415617128463
2435,1513.4566750629722
2436,1513.4566750629722
2437,1509.2415617128463
2438,1505.0264483627204
2439,1510.6465994962216
2440,1512.051637279597
2441,1512.051637279597
2442,1509.2415617128463
2443,1513.4566750629722
2444,1507.836523929471
2445,1513.4566750629722
2446,1514.8617128463475
2447,1513.4566750629722
2448,1510.6465994962216
2449,1512.051637279597
2450,1517.6717884130983
2451,1509.2415617128463
2452,1509.2415617128463
2453,1509.2415617128463
2454,1507.836523929471
2455,1507.836523929471
2456,1503.6214105793451
2457,1506.4314861460957
2458,1505.0264483627204
2459,1509.2415617128463
2460,1506.4314861460957
2461,1507.836523929471
2462,1502.2163727959696
2463,1507.836523929471
2464,1510.6465994962216
2465,1513.4566750629722
2466,1512.051637279597
2467,1513.4566750629722
2468,1510.6465994962216
2469,1510.6465994962216
2470,1513.4566750629722
2471,1510.6465994962216
2472,1513.4566750629722
2473,1512.051637279597
2474,1510.6465994962216
2475,1514.8617128463475
2476,1512.051637279597
2477,1510.6465994962216
2478,1512.051637279597
2479,1512.051637279597
2480,1512.051637279597
2481,1513.4566750629722
2482,1507.836523929471
2483,1513.4566750629722
2484,1513.4566750629722
2485,1510.6465994962216
2486,1512.051637279597
2487,1509.2415617128463
2488,1510.6465994962216
2489,1510.6465994962216
2490,1510.6465994962216
2491,1507.836523929471
2492,1505.0264483627204
2493,1506.4314861460957
2494,1506.4314861460957
2495,1507.836523929471
2496,1506.4314861460957
2497,1499.406297229219
2498,1506.4314861460957
2499,1509.2415617128463
2500,1507.836523929471
2501,1503.6214105793451
2502,1505.0264483627204
2503,1507.836523929471
2504,1505.0264483627204
2505,1503.6214105793451
2506,1506.4314861460957
2507,1505.0264483627204
2508,1507.836523929471
2509,1502.2163727959696
2510,1506.4314861460957
2511,1507.836523929471
2512,1505.0264483627204
2513,1496.5962216624685
2514,1502.2163727959696
2515,1500.8113350125943
2516,1505.0264483627204
2517,1507.836523929471
2518,1502.2163727959696
2519,1510.6465994962216
2520,1502.2163727959696
2521,1500.8113350125943
2522,1502.2163727959696
2523,1502.2163727959696
2524,1503.6214105793451
2525,1502.2163727959696
2526,1502.2163727959696
2527,1502.2163727959696
2528,1503.6214105793451
2529,1503.6214105793451
2530,1500.8113350125943
2531,1502.2163727959696
2532,1502.2163727959696
2533,1503.6214105793451
2534,1506.4314861460957
2535,1507.836523929471
2536,1503.6214105793451
2537,1512.051637279597
2538,1507.836523929471
2539,1510.6465994962216
2540,1509.2415617128463
2541,1516.2667506297228
2542,1510.6465994962216
2543,1512.051637279597
2544,1510.6465994962216
2545,1512.051637279597
2546,1512.051637279597
2547,1512.051637279597
2548,1513.4566750629722
2549,1512.051637279597
2550,1513.4566750629722
2551,1513.4566750629722
2552,1517.6717884130983
2553,1514.8617128463475
2554,1512.051637279597
2555,1510.6465994962216
2556,1509.2415617128463
2557,1513.4566750629722
2558,1513.4566750629722
2559,1516.2667506297228
2560,1509.2415617128463
2561,1513.4566750629722
2562,1514.8617128463475
2563,1514.8617128463475
2564,1516.2667506297228
2565,1513.4566750629722
2566,1513.4566750629722
2567,1514.8617128463475
2568,1507.836523929471
2569,1509.2415617128463
2570,1513.4566750629722
2571,1516.2667506297228
2572,1517.6717884130983
2573,1516.2667506297228
2574,1513.4566750629722
2575,1513.4566750629722
2576,1517.6717884130983
2577,1516.2667506297228
2578,1519.0768261964736
2579,1516.2667506297228
2580,1513.4566750629722
2581,1514.8617128463475
2582,1512.051637279597
2583,1513.4566750629722
2584,1512.051637279597
2585,1510.6465994962216
2586,1506.4314861460957
2587,1509.2415617128463
2588,1509.2415617128463
2589,1509.2415617128463
2590,1510.6465994962216
2591,1506.4314861460957
2592,1506.4314861460957
2593,1510.6465994962216
2594,1509.2415617128463
2595,1507.836523929471
2596,1512.051637279597
2597,1512.051637279597
2598,1512.051637279597
2599,1513.4566750629722
2600,1513.4566750629722
2601,1510.6465994962216
2602,1510.6465994962216
2603,1505.0264483627204
2604,1510.6465994962216
2605,1512.051637279597
2606,1512.051637279597
2607,1516.2667506297228
2608,1513.4566750629722
2609,1510.6465994962216
2610,1510.6465994962216
2611,1505.0264483627204
2612,1513.4566750629722
2613,1512.051637279597
2614,1510.6465994962216
2615,1502.2163727959696
2616,1510.6465994962216
2617,1509.2415617128463
2618,1505.0264483627204
2619,1513.4566750629722
2620,1507.836523929471
2621,1507.836523929471
2622,1507.836523929471
2623,1510.6465994962216
2624,1512.051637279597
2625,1509.2415617128463
2626,1512.051637279597
2627,1517.6717884130983
2628,1514.8617128463475
2629,1513.4566750629722
2630,1514.8617128463475
2631,1523.2919395465995
2632,1514.8617128463475
2633,1514.8617128463475
2634,1519.0768261964736
2635,1514.8617128463475
2636,1516.2667506297228
2637,1516.2667506297228
2638,1512.051637279597
2639,1516.2667506297228
2640,1516.2667506297228
2641,1512.051637279597
2642,1512.051637279597
2643,1516.2667506297228
2644,1516.2667506297228
2645,1514.8617128463475
2646,1520.4818639798489
2647,1519.0768261964736
2648,1519.0768261964736
2649,1519.0768261964736
2650,1516.2667506297228
2651,1517.6717884130983
2652,1517.6717884130983
2653,1519.0768261964736
2654,1521.8869017632242
2655,1517.6717884130983
2656,1514.8617128463475
2657,1513.4566750629722
2658,1514.8617128463475
2659,1516.2667506297228
2660,1519.0768261964736
2661,1517.6717884130983
2662,1523.2919395465995
2663,1519.0768261964736
2664,1519.0768261964736
2665,1517.6717884130983
2666,1517.6717884130983
2667,1516.2667506297228
2668,1517.6717884130983
2669,1520.4818639798489
2670,1517.6717884130983
2671,1519.0768261964736
2672,1517.6717884130983
2673,1517.6717884130983
2674,1517.6717884130983
2675,1516.2667506297228
2676,1517.6717884130983
2677,1513.4566750629722
2678,1514.8617128463475
2679,1516.2667506297228
2680,1516.2667506297228
2681,1514.8617128463475
2682,1513.4566750629722
2683,1514.8617128463475
2684,1514.8617128463475
2685,1520.4818639798489
2686,1514.8617128463475
2687,1516.2667506297228
2688,1513.4566750629722
2689,1520.4818639798489
2690,1513.4566750629722
2691,1516.2667506297228
2692,1514.8617128463475
2693,1513.4566750629722
2694,1520.4818639798489
2695,1517.6717884130983
2696,1519.0768261964736
2697,1520.4818639798489
2698,1519.0768261964736
2699,1517.6717884130983
2700,1517.6717884130983
2701,1519.0768261964736
2702,1517.6717884130983
2703,1517.6717884130983
2704,1517.6717884130983
2705,1519.0768261964736
2706,1519.0768261964736
2707,1520.4818639798489
2708,1516.2667506297228
2709,1519.0768261964736
2710,1520.4818639798489
2711,1523.2919395465995
2712,1521.8869017632242
2713,1521.8869017632242
2714,1520.4818639798489
2715,1519.0768261964736
2716,1523.2919395465995
2717,1523.2919395465995
2718,1523.2919395465995
2719,1524.6969773299747
2720,1521.8869017632242
2721,1520.4818639798489
2722,1520.4818639798489
2723,1524.6969773299747
2724,1521.8869017632242
2725,1519.0768261964736
2726,1520.4818639798489
2727,1519.0768261964736
2728,1517.6717884130983
2729,1520.4818639798489
2730,1521.8869017632242
2731,1520.4818639798489
2732,1519.0768261964736
2733,1517.6717884130983
2734,1519.0768261964736
2735,1520.4818639798489
2736,1517.6717884130983
2737,1516.2667506297228
2738,1517.6717884130983
2739,1516.2667506297228
2740,1516.2667506297228
2741,1516.2667506297228
2742,1513.4566750629722
2743,1517.6717884130983
2744,1516.2667506297228
2745,1514.8617128463475
2746,1517.6717884130983
2747,1516.2667506297228
2748,1517.6717884130983
2749,1516.2667506297228
2750,1512.051637279597
2751,1514.8617128463475
2752,1514.8617128463475
2753,1516.2667506297228
2754,1517.6717884130983
2755,1514.8617128463475
2756,1514.8617128463475
2757,1514.8617128463475
2758,1516.2667506297228
2759,1514.8617128463475
2760,1516.2667506297228
2761,1517.6717884130983
2762,1517.6717884130983
2763,1513.4566750629722
2764,1513.4566750629722
2765,1513.4566750629722
2766,1523.2919395465995
2767,1520.4818639798489
2768,1517.6717884130983
2769,1516.2667506297228
2770,1517.6717884130983
2771,1516.2667506297228
2772,1516.2667506297228
2773,1509.2415617128463
2774,1516.2667506297228
2775,1517.6717884130983
2776,1516.2667506297228
2777,1519.0768261964736
2778,1520.4818639798489
2779,1520.4818639798489
2780,1520.4818639798489
2781,1507.836523929471
2782,1519.0768261964736
2783,1520.4818639798489
2784,1523.2919395465995
2785,1520.4818639798489
2786,1524.6969773299747
2787,1521.8869017632242
2788,1520.4818639798489
2789,1520.4818639798489
2790,1520.4818639798489
2791,1520.4818639798489
2792,1519.0768261964736
2793,1519.0768261964736
2794,1521.8869017632242
2795,1520.4818639798489
2796,1519.0768261964736
2797,1530.317128463476
2798,1524.6969773299747
2799,1523.2919395465995
2800,1521.8869017632242
2801,1520.4818639798489
2802,1521.8869017632242
2803,1524.6969773299747
2804,1521.8869017632242
2805,1520.4818639798489
2806,1521.8869017632242
2807,1523.2919395465995
2808,1523.2919395465995
2809,1521.8869017632242
2810,1524.6969773299747
2811,1521.8869017632242
2812,1521.8869017632242
2813,1520.4818639798489
2814,1523.2919395465995
2815,1517.6717884130983
2816,1521.8869017632242
2817,1517.6717884130983
2818,1521.8869017632242
2819,1520.4818639798489
2820,1517.6717884130983
2821,1521.8869017632242
2822,1519.0768261964736
2823,1517.6717884130983
2824,1519.0768261964736
2825,1520.4818639798489
2826,1519.0768261964736
2827,1520.4818639798489
2828,1520.4818639798489
2829,1519.0768261964736
2830,1519.0768261964736
2831,1519.0768261964736
2832,1519.0768261964736
2833,1519.0768261964736
2834,1520.4818639798489
2835,1520.4818639798489
2836,1520.4818639798489
2837,1519.0768261964736
2838,1519.0768261964736
2839,1520.4818639798489
2840,1514.8617128463475
2841,1517.6717884130983
2842,1517.6717884130983
2843,1519.0768261964736
2844,1516.2667506297228
2845,1519.0768261964736
2846,1517.6717884130983
2847,1516.2667506297228
2848,1519.0768261964736
2849,1517.6717884130983
2850,1516.2667506297228
2851,1517.6717884130983
2852,1513.4566750629722
2853,1516.2667506297228
2854,1514.8617128463475
2855,1516.2667506297228
2856,1516.2667506297228
2857,1510.6465994962216
2858,1513.4566750629722
2859,1513.4566750629722
2860,1519.0768261964736
2861,1513.4566750629722
2862,1512.051637279597
2863,1512.051637279597
2864,1517.6717884130983
2865,1513.4566750629722
2866,1513.4566750629722
2867,1514.8617128463475
2868,1512.051637279597
2869,1513.4566750629722
2870,1512.051637279597
2871,1512.051637279597
2872,1517.6717884130983
2873,1512.051637279597
2874,1512.051637279597
2875,1513.4566750629722
2876,1517.6717884130983
2877,1513.4566750629722
2878,1510.6465994962216
2879,1510.6465994962216
2880,1505.0264483627204
2881,1513.4566750629722
2882,1514.8617128463475
2883,1516.2667506297228
2884,1510.6465994962216
2885,1517.6717884130983
2886,1519.0768261964736
2887,1517.6717884130983
2888,1520.4818639798489
2889,1514.8617128463475
2890,1517.6717884130983
2891,1514.8617128463475
2892,1523.2919395465995
2893,1517.6717884130983
2894,1520.4818639798489
2895,1520.4818639798489
2896,1521.8869017632242
2897,1517.6717884130983
2898,1517.6717884130983
2899,1520.4818639798489
2900,1521.8869017632242
2901,1523.2919395465995
2902,1521.8869017632242
2903,1520.4818639798489
2904,1521.8869017632242
2905,1519.0768261964736
2906,1520.4818639798489
2907,1520.4818639798489
2908,1514.8617128463475
2909,1520.4818639798489
2910,1517.6717884130983
2911,1521.8869017632242
2912,1520.4818639798489
2913,1520.4818639798489
2914,1524.6969773299747
2915,1526.10201511335
2916,1519.0768261964736
2917,1523.2919395465995
2918,1524.6969773299747
2919,1524.6969773299747
2920,1520.4818639798489
2921,1526.10201511335
2922,1526.10201511335
2923,1521.8869017632242
2924,1500.8113350125943
2925,1526.10201511335
2926,1523.2919395465995
2927,1524.6969773299747
2928,1527.5070528967253
2929,1528.9120906801006
2930,1526.10201511335
2931,1523.2919395465995
2932,1526.10201511335
2933,1524.6969773299747
2934,1524.6969773299747
2935,1524.6969773299747
2936,1517.6717884130983
2937,1523.2919395465995
2938,1527.5070528967253
2939,1521.8869017632242
2940,1521.8869017632242
2941,1524.6969773299747
2942,1523.2919395465995
2943,1523.2919395465995
2944,1523.2919395465995
2945,1526.10201511335
2946,1526.10201511335
2947,1523.2919395465995
2948,1523.2919395465995
2949,1521.8869017632242
2950,1523.2919395465995
2951,1523.2919395465995
2952,1521.8869017632242
2953,1521.8869017632242
2954,1521.8869017632242
2955,1520.4818639798489
2956,1519.0768261964736
2957,1520.4818639798489
2958,1521.8869017632242
2959,1520.4818639798489
2960,1519.0768261964736
2961,1521.8869017632242
2962,1524.6969773299747
2963,1523.2919395465995
2964,1519.0768261964736
2965,1520.4818639798489
2966,1520.4818639798489
2967,1524.6969773299747
2968,1516.2667506297228
2969,1523.2919395465995
2970,1523.2919395465995
2971,1523.2919395465995
2972,1521.8869017632242
2973,1524.6969773299747
2974,1523.2919395465995
2975,1519.0768261964736
2976,1519.0768261964736
2977,1520.4818639798489
2978,1523.2919395465995
2979,1523.2919395465995
2980,1516.2667506297228
2981,1523.2919395465995
2982,1520.4818639798489
2983,1523.2919395465995
2984,1517.6717884130983
2985,1520.4818639798489
2986,1519.0768261964736
2987,1519.0768261964736
2988,1517.6717884130983
2989,1520.4818639798489
2990,1519.0768261964736
2991,1517.6717884130983
2992,1514.8617128463475
2993,1519.0768261964736
2994,1519.0768261964736
2995,1517.6717884130983
2996,1523.2919395465995
2997,1517.6717884130983
2998,1523.2919395465995
2999,1520.4818639798489
3000,1523.2919395465995
3001,1514.8617128463475
3002,1517.6717884130983
3003,1519.0768261964736
3004,1519.0768261964736
3005,1517.6717884130983
3006,1516.2667506297228
3007,1516.2667506297228
3008,1509.2415617128463
3009,1517.6717884130983
3010,1519.0768261964736
3011,1517.6717884130983
3012,1516.2667506297228
3013,1516.2667506297228
3014,1516.2667506297228
3015,1516.2667506297228
3016,1519.0768261964736
3017,1516.2667506297228
3018,1519.0768261964736
3019,1521.8869017632242
3020,1516.2667506297228
3021,1519.0768261964736
3022,1521.8869017632242
3023,1517.6717884130983
3024,1519.0768261964736
3025,1520.4818639798489
3026,1514.8617128463475
3027,1513.4566750629722
3028,1516.2667506297228
3029,1520.4818639798489
3030,1519.0768261964736
3031,1514.8617128463475
3032,1519.0768261964736
3033,1512.051637279597
3034,1512.051637279597
3035,1513.4566750629722
3036,1512.051637279597
3037,1513.4566750629722
3038,1513.4566750629722
3039,1516.2667506297228
3040,1513.4566750629722
3041,1512.051637279597
3042,1509.2415617128463
3043,1514.8617128463475
3044,1510.6465994962216
3045,1512.051637279597
3046,1516.2667506297228
3047,1513.4566750629722
3048,1513.4566750629722
3049,1509.2415617128463
3050,1506.4314861460957
3051,1510.6465994962216
3052,1512.051637279597
3053,1509.2415617128463
3054,1510.6465994962216
3055,1510.6465994962216
3056,1512.051637279597
3057,1513.4566750629722
3058,1510.6465994962216
3059,1514.8617128463475
3060,1517.6717884130983
3061,1517.6717884130983
3062,1517.6717884130983
3063,1514.8617128463475
3064,1514.8617128463475
3065,1514.8617128463475
3066,1500.8113350125943
3067,1513.4566750629722
3068,1510.6465994962216
3069,1509.2415617128463
3070,1514.8617128463475
3071,1513.4566750629722
3072,1514.8617128463475
3073,1517.6717884130983
3074,1513.4566750629722
3075,1513.4566750629722
3076,1516.2667506297228
3077,1514.8617128463475
3078,1513.4566750629722
3079,1516.2667506297228
3080,1517.6717884130983
3081,1517.6717884130983
3082,1516.2667506297228
3083,1513.4566750629722
3084,1516.2667506297228
3085,1513.4566750629722
3086,1513.4566750629722
3087,1517.6717884130983
3088,1516.2667506297228
3089,1519.0768261964736
3090,1519.0768261964736
3091,1516.2667506297228
3092,1517.6717884130983
3093,1517.6717884130983
3094,1517.6717884130983
3095,1512.051637279597
3096,1513.4566750629722
3097,1502.2163727959696
3098,1513.4566750629722
3099,1514.8617128463475
3100,1516.2667506297228
3101,1512.051637279597
3102,1512.051637279597
3103,1516.2667506297228
3104,1514.8617128463475
3105,1512.051637279597
3106,1512.051637279597
3107,1514.8617128463475
3108,1509.2415617128463
3109,1512.051637279597
3110,1512.051637279597
3111,1513.4566750629722
3112,1512.051637279597
3113,1513.4566750629722
3114,1513.4566750629722
3115,1517.6717884130983
3116,1500.8113350125943
3117,1516.2667506297228
3118,1513.4566750629722
3119,1516.2667506297228
3120,1516.2667506297228
3121,1517.6717884130983
3122,1513.4566750629722
3123,1513.4566750629722
3124,1516.2667506297228
3125,1513.4566750629722
3126,1516.2667506297228
3127,1517.6717884130983
3128,1516.2667506297228
3129,1513.4566750629722
3130,1513.4566750629722
3131,1513.4566750629722
3132,1512.051637279597
3133,1514.8617128463475
3134,1513.4566750629722
3135,1513.4566750629722
3136,1513.4566750629722
3137,1517.6717884130983
3138,1514.8617128463475
3139,1513.4566750629722
3140,1512.051637279597
3141,1513.4566750629722
3142,1516.2667506297228
3143,1514.8617128463475
3144,1519.0768261964736
3145,1516.2667506297228
3146,1516.2667506297228
3147,1517.6717884130983
3148,1519.0768261964736
3149,1514.8617128463475
3150,1516.2667506297228
3151,1516.2667506297228
3152,1517.6717884130983
3153,1519.0768261964736
3154,1517.6717884130983
3155,1514.8617128463475
3156,1513.4566750629722
3157,1516.2667506297228
3158,1516.2667506297228
3159,1517.6717884130983
3160,1514.8617128463475
3161,1517.6717884130983
3162,1516.2667506297228
3163,1513.4566750629722
3164,1516.2667506297228
3165,1519.0768261964736
3166,1516.2667506297228
3167,1514.8617128463475
3168,1517.6717884130983
3169,1519.0768261964736
3170,1514.8617128463475
3171,1517.6717884130983
3172,1512.051637279597
3173,1517.6717884130983
3174,1514.8617128463475
3175,1513.4566750629722
3176,1517.6717884130983
3177,1516.2667506297228
3178,1516.2667506297228
3179,1513.4566750629722
3180,1514.8617128463475
3181,1513.4566750629722
3182,1516.2667506297228
3183,1516.2667506297228
3184,1512.051637279597
3185,1513.4566750629722
3186,1513.4566750629722
3187,1510.6465994962216
3188,1516.2667506297228
3189,1510.6465994962216
3190,1514.8617128463475
3191,1513.4566750629722
3192,1513.4566750629722
3193,1510.6465994962216
3194,1512.051637279597
3195,1505.0264483627204
3196,1510.6465994962216
3197,1512.051637279597
3198,1516.2667506297228
3199,1512.051637279597
3200,1516.2667506297228
3201,1514.8617128463475
3202,1510.6465994962216
3203,1512.051637279597
3204,1510.6465994962216
3205,1510.6465994962216
3206,1513.4566750629722
3207,1506.4314861460957
3208,1512.051637279597
3209,1509.2415617128463
3210,1510.6465994962216
3211,1507.836523929471
3212,1510.6465994962216
3213,1516.2667506297228
3214,1510.6465994962216
3215,1512.051637279597
3216,1512.051637279597
3217,1510.6465994962216
3218,1512.051637279597
3219,1512.051637279597
3220,1512.051637279597
3221,1510.6465994962216
3222,1513.4566750629722
3223,1512.051637279597
3224,1509.2415617128463
3225,1513.4566750629722
3226,1510.6465994962216
3227,1513.4566750629722
3228,1512.051637279597
3229,1512.051637279597
3230,1512.051637279597
3231,1513.4566750629722
3232,1512.051637279597
3233,1512.051637279597
3234,1512.051637279597
3235,1512.051637279597
3236,1513.4566750629722
3237,1512.051637279597
3238,1506.4314861460957
3239,1509.2415617128463
3240,1510.6465994962216
3241,1510.6465994962216
3242,1509.2415617128463
3243,1512.051637279597
3244,1513.4566750629722
3245,1509.2415617128463
3246,1505.0264483627204
3247,1512.051637279597
3248,1510.6465994962216
3249,1509.2415617128463
3250,1512.051637279597
3251,1512.051637279597
3252,1510.6465994962216
3253,1510.6465994962216
3254,1507.836523929471
3255,1513.4566750629722
3256,1506.4314861460957
3257,1509.2415617128463
3258,1500.8113350125943
3259,1507.836523929471
3260,1510.6465994962216
3261,1513.4566750629722
3262,1512.051637279597
3263,1507.836523929471
3264,1510.6465994962216
3265,1507.836523929471
3266,1507.836523929471
3267,1506.4314861460957
3268,1512.051637279597
3269,1507.836523929471
3270,1507.836523929471
3271,1509.2415617128463
3272,1510.6465994962216
3273,1509.2415617128463
3274,1506.4314861460957
3275,1507.836523929471
3276,1507.836523929471
3277,1506.4314861460957
3278,1506.4314861460957
3279,1512.051637279597
3280,1513.4566750629722
3281,1506.4314861460957
3282,1509.2415617128463
3283,1507.836523929471
3284,1506.4314861460957
3285,1503.6214105793451
3286,1510.6465994962216
3287,1513.4566750629722
3288,1510.6465994962216
3289,1507.836523929471
3290,1513.4566750629722
3291,1512.051637279597
3292,1513.4566750629722
3293,1513.4566750629722
3294,1509.2415617128463
3295,1509.2415617128463
3296,1507.836523929471
3297,1503.6214105793451
3298,1509.2415617128463
3299,1510.6465994962216
3300,1506.4314861460957
3301,1507.836523929471
3302,1506.4314861460957
3303,1507.836523929471
3304,1509.2415617128463
3305,1507.836523929471
3306,1509.2415617128463
3307,1506.4314861460957
3308,1510.6465994962216
3309,1507.836523929471
3310,1505.0264483627204
3311,1505.0264483627204
3312,1506.4314861460957
3313,1506.4314861460957
3314,1506.4314861460957
3315,1507.836523929471
3316,1510.6465994962216
3317,1505.0264483627204
3318,1506.4314861460957
3319,1507.836523929471
3320,1505.0264483627204
3321,1506.4314861460957
3322,1507.836523929471
3323,1507.836523929471
3324,1507.836523929471
3325,1505.0264483627204
3326,1506.4314861460957
3327,1506.4314861460957
3328,1510.6465994962216
3329,1512.051637279597
3330,1509.2415617128463
3331,1506.4314861460957
3332,1506.4314861460957
3333,1506.4314861460957
3334,1509.2415617128463
3335,1506.4314861460957
3336,1506.4314861460957
3337,1505.0264483627204
3338,1509.2415617128463
3339,1502.2163727959696
3340,1505.0264483627204
3341,1503.6214105793451
3342,1507.836523929471
3343,1505.0264483627204
3344,1503.6214105793451
3345,1505.0264483627204
3346,1505.0264483627204
3347,1507.836523929471
3348,1503.6214105793451
3349,1505.0264483627204
3350,1506.4314861460957
3351,1507.836523929471
3352,1500.8113350125943
3353,1502.2163727959696
3354,1503.6214105793451
3355,1495.1911838790932
3356,1505.0264483627204
3357,1500.8113350125943
3358,1505.0264483627204
3359,1495.1911838790932
3360,1505.0264483627204
3361,1502.2163727959696
3362,1500.8113350125943
3363,1506.4314861460957
3364,1505.0264483627204
3365,1506.4314861460957
3366,1503.6214105793451
3367,1505.0264483627204
3368,1506.4314861460957
3369,1503.6214105793451
3370,1505.0264483627204
3371,1498.0012594458437
3372,1506.4314861460957
3373,1503.6214105793451
3374,1506.4314861460957
3375,1503.6214105793451
3376,1505.0264483627204
3377,1507.836523929471
3378,1506.4314861460957
3379,1505.0264483627204
3380,1505.0264483627204
3381,1506.4314861460957
3382,1507.836523929471
3383,1509.2415617128463
3384,1506.4314861460957
3385,1507.836523929471
3386,1510.6465994962216
3387,1506.4314861460957
3388,1507.836523929471
3389,1507.836523929471
3390,1505.0264483627204
3391,1506.4314861460957
3392,1509.2415617128463
3393,1505.0264483627204
3394,1502.2163727959696
3395,1505.0264483627204
3396,1505.0264483627204
3397,1507.836523929471
3398,1506.4314861460957
3399,1503.6214105793451
3400,1506.4314861460957
3401,1507.836523929471
3402,1507.836523929471
3403,1509.2415617128463
3404,1506.4314861460957
3405,1509.2415617128463
3406,1514.8617128463475
3407,1505.0264483627204
3408,1512.051637279597
3409,1510.6465994962216
3410,1514.8617128463475
3411,1510.6465994962216
3412,1510.6465994962216
3413,1509.2415617128463
3414,1509.2415617128463
3415,1510.6465994962216
3416,1509.2415617128463
3417,1512.051637279597
3418,1509.2415617128463
3419,1512.051637279597
3420,1513.4566750629722
3421,1516.2667506297228
3422,1513.4566750629722
3423,1513.4566750629722
3424,1513.4566750629722
3425,1513.4566750629722
3426,1513.4566750629722
3427,1514.8617128463475
3428,1513.4566750629722
3429,1512.051637279597
3430,1513.4566750629722
3431,1512.051637279597
3432,1513.4566750629722
3433,1505.0264483627204
3434,1509.2415617128463
3435,1510.6465994962216
3436,1507.836523929471
3437,1513.4566750629722
3438,1509.2415617128463
3439,1512.051637279597
3440,1509.2415617128463
3441,1510.6465994962216
3442,1510.6465994962216
3443,1510.6465994962216
3444,1509.2415617128463
3445,1507.836523929471
3446,1506.4314861460957
3447,1506.4314861460957
3448,1509.2415617128463
3449,1505.0264483627204
3450,1506.4314861460957
3451,1506.4314861460957
3452,1505.0264483627204
3453,1509.2415617128463
3454,1505.0264483627204
3455,1506.4314861460957
3456,1507.836523929471
3457,1509.2415617128463
3458,1502.2163727959696
3459,1506.4314861460957
3460,1502.2163727959696
3461,1506.4314861460957
3462,1507.836523929471
3463,1507.836523929471
3464,1507.836523929471
3465,1506.4314861460957
3466,1507.836523929471
3467,1507.836523929471
3468,1503.6214105793451
3469,1507.836523929471
3470,1514.8617128463475
3471,1507.836523929471
3472,1512.051637279597
3473,1512.051637279597
3474,1510.6465994962216
3475,1509.2415617128463
3476,1506.4314861460957
3477,1514.8617128463475
3478,1513.4566750629722
3479,1514.8617128463475
3480,1519.0768261964736
3481,1514.8617128463475
3482,1519.0768261964736
3483,1519.0768261964736
3484,1516.2667506297228
3485,1517.6717884130983
3486,1517.6717884130983
3487,1519.0768261964736
3488,1519.0768261964736
3489,1517.6717884130983
3490,1517.6717884130983
3491,1519.0768261964736
3492,1519.0768261964736
3493,1521.8869017632242
3494,1519.0768261964736
3495,1517.6717884130983
3496,1514.8617128463475
3497,1514.8617128463475
3498,1513.4566750629722
3499,1513.4566750629722
3500,1514.8617128463475
3501,1507.836523929471
3502,1509.2415617128463
3503,1512.051637279597
3504,1513.4566750629722
3505,1510.6465994962216
3506,1509.2415617128463
3507,1498.0012594458437
3508,1510.6465994962216
3509,1509.2415617128463
3510,1512.051637279597
3511,1512.051637279597
3512,1510.6465994962216
3513,1510.6465994962216
3514,1510.6465994962216
3515,1516.2667506297228
3516,1510.6465994962216
3517,1512.051637279597
3518,1513.4566750629722
3519,1507.836523929471
3520,1517.6717884130983
3521,1519.0768261964736
3522,1517.6717884130983
3523,1523.2919395465995
3524,1519.0768261964736
3525,1517.6717884130983
3526,1517.6717884130983
3527,1520.4818639798489
3528,1521.8869017632242
3529,1517.6717884130983
3530,1520.4818639798489
3531,1519.0768261964736
3532,1520.4818639798489
3533,1527.5070528967253
3534,1527.5070528967253
3535,1524.6969773299747
3536,1524.6969773299747
3537,1527.5070528967253
3538,1526.10201511335
3539,1526.10201511335
3540,1524.6969773299747
3541,1527.5070528967253
3542,1520.4818639798489
3543,1528.9120906801006
3544,1523.2919395465995
3545,1521.8869017632242
3546,1521.8869017632242
3547,1519.0768261964736
3548,1521.8869017632242
3549,1517.6717884130983
3550,1516.2667506297228
3551,1513.4566750629722
3552,1509.2415617128463
3553,1510.6465994962216
3554,1509.2415617128463
3555,1505.0264483627204
3556,1506.4314861460957
3557,1507.836523929471
3558,1507.836523929471
3559,1512.051637279597
3560,1513.4566750629722
3561,1512.051637279597
3562,1513.4566750629722
3563,1513.4566750629722
3564,1510.6465994962216
3565,1516.2667506297228
3566,1519.0768261964736
3567,1513.4566750629722
3568,1516.2667506297228
3569,1516.2667506297228
3570,1520.4818639798489
3571,1523.2919395465995
3572,1527.5070528967253
3573,1526.10201511335
3574,1527.5070528967253
3575,1523.2919395465995
3576,1523.2919395465995
3577,1527.5070528967253
3578,1526.10201511335
3579,1530.317128463476
3580,1530.317128463476
3581,1530.317128463476
3582,1533.1272040302267
3583,1531.7221662468514
3584,1528.9120906801006
3585,1528.9120906801006
3586,1526.10201511335
3587,1528.9120906801006
3588,1527.5070528967253
3589,1527.5070528967253
3590,1524.6969773299747
3591,1523.2919395465995
3592,1517.6717884130983
3593,1519.0768261964736
3594,1517.6717884130983
3595,1517.6717884130983
3596,1519.0768261964736
3597,1514.8617128463475
3598,1513.4566750629722
3599,1510.6465994962216
3600,1510.6465994962216
3601,1509.2415617128463
3602,1503.6214105793451
3603,1507.836523929471
3604,1505.0264483627204
3605,1502.2163727959696
3606,1502.2163727959696
3607,1505.0264483627204
3608,1505.0264483627204
3609,1506.4314861460957
3610,1506.4314861460957
3611,1505.0264483627204
3612,1505.0264483627204
3613,1500.8113350125943
3614,1505.0264483627204
3615,1507.836523929471
3616,1509.2415617128463
3617,1519.0768261964736
3618,1521.8869017632242
3619,1520.4818639798489
3620,1520.4818639798489
3621,1530.317128463476
3622,1526.10201511335
3623,1524.6969773299747
3624,1530.317128463476
3625,1530.317128463476
3626,1528.9120906801006
3627,1530.317128463476
3628,1530.317128463476
3629,1523.2919395465995
3630,1524.6969773299747
3631,1526.10201511335
3632,1530.317128463476
3633,1527.5070528967253
3634,1530.317128463476
3635,1530.317128463476
3636,1526.10201511335
3637,1530.317128463476
3638,1523.2919395465995
3639,1519.0768261964736
3640,1519.0768261964736
3641,1516.2667506297228
3642,1510.6465994962216
3643,1510.6465994962216
3644,1509.2415617128463
3645,1503.6214105793451
3646,1513.4566750629722
3647,1516.2667506297228
3648,1512.051637279597
3649,1503.6214105793451
3650,1509.2415617128463
3651,1509.2415617128463
3652,1510.6465994962216
3653,1512.051637279597
3654,1513.4566750629722
3655,1514.8617128463475
3656,1514.8617128463475
3657,1510.6465994962216
3658,1514.8617128463475
3659,1517.6717884130983
3660,1520.4818639798489
3661,1521.8869017632242
3662,1519.0768261964736
3663,1519.0768261964736
3664,1524.6969773299747
3665,1521.8869017632242
3666,1523.2919395465995
3667,1526.10201511335
3668,1530.317128463476
3669,1530.317128463476
3670,1535.9372795969773
3671,1541.5574307304785
3672,1538.747355163728
3673,1540.1523929471032
3674,1535.9372795969773
3675,1533.1272040302267
3676,1533.1272040302267
3677,1531.7221662468514
3678,1535.9372795969773
3679,1535.9372795969773
3680,1534.532241813602
3681,1530.317128463476
3682,1530.317128463476
3683,1533.1272040302267
3684,1531.7221662468514
3685,1530.317128463476
3686,1531.7221662468514
3687,1535.9372795969773
3688,1540.1523929471032
3689,1540.1523929471032
3690,1535.9372795969773
3691,1534.532241813602
3692,1527.5070528967253
3693,1526.10201511335
3694,1520.4818639798489
3695,1520.4818639798489
3696,1512.051637279597
3697,1513.4566750629722
3698,1509.2415617128463
3699,1506.4314861460957
3700,1507.836523929471
3701,1512.051637279597
3702,1509.2415617128463
3703,1510.6465994962216
3704,1507.836523929471
3705,1509.2415617128463
3706,1509.2415617128463
3707,1507.836523929471
3708,1505.0264483627204
3709,1514.8617128463475
3710,1507.836523929471
3711,1506.4314861460957
3712,1505.0264483627204
3713,1505.0264483627204
3714,1510.6465994962216
3715,1516.2667506297228
3716,1517.6717884130983
3717,1524.6969773299747
3718,1521.8869017632242
3719,1526.10201511335
3720,1526.10201511335
3721,1528.9120906801006
3722,1534.532241813602
3723,1535.9372795969773
3724,1541.5574307304785
3725,1542.9624685138538
3726,1541.5574307304785
3727,1540.1523929471032
3728,1547.1775818639799
3729,1547.1775818639799
3730,1545.7725440806046
3731,1541.5574307304785
3732,1534.532241813602
3733,1530.317128463476
3734,1527.5070528967253
3735,1524.6969773299747
3736,1526.10201511335
3737,1530.317128463476
3738,1527.5070528967253
3739,1533.1272040302267
3740,1537.3423173803526
3741,1537.3423173803526
3742,1533.1272040302267
3743,1535.9372795969773
3744,1534.532241813602
3745,1537.3423173803526
3746,1531.7221662468514
3747,1535.9372795969773
3748,1533.1272040302267
3749,1533.1272040302267
3750,1528.9120906801006
3751,1531.7221662468514
3752,1534.532241813602
3753,1531.7221662468514
3754,1535.9372795969773
3755,1533.1272040302267
3756,1535.9372795969773
3757,1540.1523929471032
3758,1533.1272040302267
3759,1533.1272040302267
3760,1530.317128463476
3761,1531.7221662468514
3762,1527.5070528967253
3763,1523.2919395465995
3764,1523.2919395465995
3765,1524.6969773299747
3766,1527.5070528967253
3767,1530.317128463476
3768,1527.5070528967253
3769,1534.532241813602
3770,1538.747355163728
3771,1535.9372795969773
3772,1537.3423173803526
3773,1535.9372795969773
3774,1527.5070528967253
3775,1523.2919395465995
3776,1520.4818639798489
3777,1513.4566750629722
3778,1510.6465994962216
3779,1509.2415617128463
3780,1505.0264483627204
3781,1502.2163727959696
3782,1499.406297229219
3783,1498.0012594458437
3784,1498.0012594458437
3785,1493.7861460957179
3786,1493.7861460957179
3787,1499.406297229219
3788,1509.2415617128463
3789,1512.051637279597
3790,1514.8617128463475
3791,1516.2667506297228
3792,1523.2919395465995
3793,1520.4818639798489
3794,1516.2667506297228
3795,1516.2667506297228
3796,1509.2415617128463
3797,1516.2667506297228
3798,1514.8617128463475
3799,1510.6465994962216
3800,1512.051637279597
3801,1506.4314861460957
3802,1500.8113350125943
3803,1499.406297229219
3804,1502.2163727959696
3805,1498.0012594458437
3806,1493.7861460957179
3807,1492.3811083123426
3808,1490.9760705289673
3809,1479.7357682619647
3810,1479.7357682619647
3811,1485.355919395466
3812,1495.1911838790932
3813,1506.4314861460957
3814,1514.8617128463475
3815,1513.4566750629722
3816,1506.4314861460957
3817,1509.2415617128463
3818,1500.8113350125943
3819,1505.0264483627204
3820,1509.2415617128463
3821,1513.4566750629722
3822,1520.4818639798489
3823,1528.9120906801006
3824,1537.3423173803526
3825,1530.317128463476
3826,1530.317128463476
3827,1521.8869017632242
3828,1523.2919395465995
3829,1516.2667506297228
3830,1514.8617128463475
3831,1512.051637279597
3832,1510.6465994962216
3833,1506.4314861460957
3834,1502.2163727959696
3835,1495.1911838790932
3836,1493.7861460957179
3837,1490.9760705289673
3838,1493.7861460957179
3839,1488.1659949622165
3840,1483.9508816120906
3841,1478.3307304785894
3842,1475.5206549118386
3843,1483.9508816120906
3844,1492.3811083123426
3845,1499.406297229219
3846,1505.0264483627204
3847,1513.4566750629722
3848,1528.9120906801006
3849,1537.3423173803526
3850,1547.1775818639799
3851,1549.9876574307305
3852,1549.9876574307305
3853,1551.3926952141057
3854,1555.6078085642316
3855,1551.3926952141057
3856,1558.4178841309822
3857,1558.4178841309822
3858,1558.4178841309822
3859,1555.6078085642316
3860,1548.5826196473552
3861,1541.5574307304785
3862,1535.9372795969773
3863,1531.7221662468514
3864,1520.4818639798489
3865,1510.6465994962216
3866,1506.4314861460957
3867,1496.5962216624685
3868,1483.9508816120906
3869,1479.7357682619647
3870,1479.7357682619647
3871,1474.1156171284633
3872,1468.4954659949622
3873,1469.9005037783375
3874,1471.3055415617127
3875,1472.710579345088
3876,1481.14080604534
3877,1489.5710327455918
3878,1495.1911838790932
3879,1503.6214105793451
3880,1507.836523929471
3881,1513.4566750629722
3882,1526.10201511335
3883,1547.1775818639799
3884,1569.6581863979848
3885,1582.3035264483626
3886,1575.2783375314862
3887,1558.4178841309822
3888,1552.797732997481
3889,1555.6078085642316
3890,1559.8229219143577
3891,1565.443073047859
3892,1573.8732997481109
3893,1572.4682619647356
3894,1565.443073047859
3895,1562.6329974811083
3896,1549.9876574307305
3897,1535.9372795969773
3898,1513.4566750629722
3899,1488.1659949622165
3900,1474.1156171284633
3901,1453.0400503778337
3902,1447.4198992443323
3903,1441.7997481108312
3904,1450.2299748110831
3905,1450.2299748110831
3906,1460.0652392947102
3907,1467.0904282115869
3908,1483.9508816120906
3909,1500.8113350125943
3910,1513.4566750629722
3911,1516.2667506297228
3912,1513.4566750629722
3913,1519.0768261964736
3914,1520.4818639798489
3915,1526.10201511335
3916,1523.2919395465995
3917,1526.10201511335
3918,1528.9120906801006
3919,1534.532241813602
3920,1528.9120906801006
3921,1524.6969773299747
3922,1516.2667506297228
3923,1506.4314861460957
3924,1499.406297229219
3925,1500.8113350125943
3926,1503.6214105793451
3927,1490.9760705289673
3928,1486.7609571788412
3929,1490.9760705289673
3930,1492.3811083123426
3931,1493.7861460957179
3932,1506.4314861460957
3933,1514.8617128463475
3934,1523.2919395465995
3935,1531.7221662468514
3936,1540.1523929471032
3937,1552.797732997481
3938,1561.227959697733
3939,1566.8481108312342
3940,1571.06322418136
3941,1573.8732997481109
3942,1568.2531486146095
3943,1559.8229219143577
3944,1549.9876574307305
3945,1533.1272040302267
3946,1520.4818639798489
3947,1505.0264483627204
3948,1492.3811083123426
3949,1483.9508816120906
3950,1482.5458438287153
3951,1483.9508816120906
3952,1479.7357682619647
3953,1474.1156171284633
3954,1468.4954659949622
3955,1472.710579345088
3956,1469.9005037783375
3957,1468.4954659949622
3958,1462.875314861461
3959,1468.4954659949622
3960,1461.4702770780855
3961,1453.0400503778337
3962,1444.6098236775817
3963,1446.014861460957
3964,1448.8249370277078
3965,1451.6350125944584
3966,1451.6350125944584
3967,1453.0400503778337
3968,1450.2299748110831
3969,1454.445088161209
3970,1460.0652392947102
3971,1476.9256926952141
3972,1485.355919395466
3973,1495.1911838790932
3974,1498.0012594458437
3975,1500.8113350125943
3976,1503.6214105793451
3977,1507.836523929471
3978,1509.2415617128463
3979,1513.4566750629722
3980,1510.6465994962216
3981,1507.836523929471
3982,1500.8113350125943
3983,1485.355919395466
3984,1479.7357682619647
3985,1479.7357682619647
3986,1485.355919395466
3987,1481.14080604534
3988,1478.3307304785894
3989,1476.9256926952141
3990,1471.3055415617127
3991,1468.4954659949622
3992,1464.2803526448363
3993,1462.875314861461
3994,1455.8501259445843
3995,1460.0652392947102
3996,1461.4702770780855
3997,1465.6853904282116
3998,1461.4702770780855
3999,1475.5206549118386
4000,1493.7861460957179
4001,1510.6465994962216
4002,1505.0264483627204
4003,1503.6214105793451
4004,1498.0012594458437
4005,1495.1911838790932
4006,1495.1911838790932
4007,1490.9760705289673
4008,1481.14080604534
4009,1479.7357682619647
4010,1474.1156171284633
4011,1471.3055415617127
4012,1472.710579345088
4013,1475.5206549118386
4014,1486.7609571788412
4015,1483.9508816120906
4016,1486.7609571788412
4017,1485.355919395466
4018,1489.5710327455918
4019,1490.9760705289673
4020,1489.5710327455918
4021,1482.5458438287153
4022,1478.3307304785894
4023,1482.5458438287153
4024,1488.1659949622165
4025,1490.9760705289673
4026,1485.355919395466
4027,1485.355919395466
4028,1500.8113350125943
4029,1509.2415617128463
4030,1513.4566750629722
4031,1528.9120906801006
4032,1538.747355163728
4033,1549.9876574307305
4034,1547.1775818639799
4035,1552.797732997481
4036,1538.747355163728
4037,1533.1272040302267
4038,1516.2667506297228
4039,1516.2667506297228
4040,1510.6465994962216
4041,1505.0264483627204
4042,1506.4314861460957
4043,1499.406297229219
4044,1490.9760705289673
4045,1490.9760705289673
4046,1493.7861460957179
4047,1488.1659949622165
4048,1482.5458438287153
4049,1471.3055415617127
4050,1458.660201511335
4051,1454.445088161209
4052,1444.6098236775817
4053,1440.3947103274559
4054,1438.9896725440806
4055,1444.6098236775817
4056,1453.0400503778337
4057,1468.4954659949622
4058,1474.1156171284633
4059,1482.5458438287153
4060,1490.9760705289673
4061,1496.5962216624685
4062,1498.0012594458437
4063,1490.9760705289673
4064,1492.3811083123426
4065,1490.9760705289673
4066,1485.355919395466
4067,1472.710579345088
4068,1468.4954659949622
4069,1481.14080604534
4070,1506.4314861460957
4071,1531.7221662468514
4072,1545.7725440806046
4073,1561.227959697733
4074,1573.8732997481109
4075,1583.708564231738
4076,1589.3287153652393
4077,1582.3035264483626
4078,1568.2531486146095
4079,1552.797732997481
4080,1538.747355163728
4081,1527.5070528967253
4082,1514.8617128463475
4083,1519.0768261964736
4084,1528.9120906801006
4085,1533.1272040302267
4086,1526.10201511335
4087,1517.6717884130983
4088,1516.2667506297228
4089,1499.406297229219
4090,1506.4314861460957
4091,1498.0012594458437
4092,1488.1659949622165
4093,1476.9256926952141
4094,1462.875314861461
4095,1448.8249370277078
4096,1438.9896725440806
4097,1434.7745591939547
4098,1433.3695214105792
4099,1434.7745591939547
4100,1440.3947103274559
4101,1446.014861460957
4102,1469.9005037783375
4103,1474.1156171284633
4104,1471.3055415617127
4105,1464.2803526448363
4106,1443.2047858942065
4107,1426.3443324937027
4108,1415.1040302267002
4109,1412.2939546599496
4110,1408.0788413098237
4111,1409.483879093199
4112,1409.483879093199
4113,1406.6738035264484
4114,1416.5090680100755
4115,1426.3443324937027
4116,1426.3443324937027
4117,1431.964483627204
4118,1426.3443324937027
4119,1436.17959697733
4120,1447.4198992443323
4121,1460.0652392947102
4122,1476.9256926952141
4123,1496.5962216624685
4124,1503.6214105793451
4125,1500.8113350125943
4126,1505.0264483627204
4127,1516.2667506297228
4128,1533.1272040302267
4129,1561.227959697733
4130,1575.2783375314862
4131,1586.5186397984885
4132,1607.5942065491183
4133,1617.4294710327456
4134,1616.0244332493703
4135,1616.0244332493703
4136,1611.8093198992442
4137,1592.13879093199
4138,1572.4682619647356
4139,1558.4178841309822
4140,1554.2027707808563
4141,1547.1775818639799
4142,1545.7725440806046
4143,1547.1775818639799
4144,1552.797732997481
4145,1564.0380352644836
4146,1573.8732997481109
4147,1571.06322418136
4148,1562.6329974811083
4149,1558.4178841309822
4150,1549.9876574307305
4151,1534.532241813602
4152,1517.6717884130983
4153,1499.406297229219
4154,1499.406297229219
4155,1493.7861460957179
4156,1492.3811083123426
4157,1495.1911838790932
4158,1499.406297229219
4159,1506.4314861460957
4160,1512.051637279597
4161,1520.4818639798489
4162,1517.6717884130983
4163,1517.6717884130983
4164,1519.0768261964736
4165,1545.7725440806046
4166,1561.227959697733
4167,1571.06322418136
4168,1561.227959697733
4169,1551.3926952141057
4170,1541.5574307304785
4171,1510.6465994962216
4172,1471.3055415617127
4173,1450.2299748110831
4174,1446.014861460957
4175,1478.3307304785894
4176,1513.4566750629722
4177,1519.0768261964736
4178,1506.4314861460957
4179,1489.5710327455918
4180,1478.3307304785894
4181,1461.4702770780855
4182,1446.014861460957
4183,1430.5594458438286
4184,1419.319143576826
4185,1405.268765743073
4186,1382.788161209068
4187,1367.3327455919396
4188,1360.3075566750629
4189,1364.5226700251887
4190,1377.1680100755666
4191,1417.9141057934507
4192,1464.2803526448363
4193,1489.5710327455918
4194,1495.1911838790932
4195,1507.836523929471
4196,1524.6969773299747
4197,1533.1272040302267
4198,1523.2919395465995
4199,1505.0264483627204
4200,1483.9508816120906
4201,1455.8501259445843
4202,1444.6098236775817
4203,1437.5846347607053
4204,1433.3695214105792
4205,1420.7241813602013
4206,1417.9141057934507
4207,1415.1040302267002
4208,1398.2435768261964
4209,1387.0032745591939
4210,1389.8133501259445
4211,1385.5982367758186
4212,1389.8133501259445
4213,1387.0032745591939
4214,1388.4083123425692
4215,1398.2435768261964
4216,1409.483879093199
4217,1417.9141057934507
4218,1430.5594458438286
4219,1440.3947103274559
4220,1468.4954659949622
4221,1485.355919395466
4222,1499.406297229219
4223,1507.836523929471
4224,1483.9508816120906
4225,1468.4954659949622
4226,1469.9005037783375
4227,1474.1156171284633
4228,1488.1659949622165
4229,1489.5710327455918
4230,1499.406297229219
4231,1500.8113350125943
4232,1517.6717884130983
4233,1528.9120906801006
4234,1551.3926952141057
4235,1573.8732997481109
4236,1569.6581863979848
4237,1557.012846347607
4238,1542.9624685138538
4239,1533.1272040302267
4240,1534.532241813602
4241,1528.9120906801006
4242,1512.051637279597
4243,1489.5710327455918
4244,1478.3307304785894
4245,1474.1156171284633
4246,1485.355919395466
4247,1483.9508816120906
4248,1472.710579345088
4249,1462.875314861461
4250,1468.4954659949622
4251,1475.5206549118386
4252,1482.5458438287153
4253,1479.7357682619647
4254,1485.355919395466
4255,1505.0264483627204
4256,1505.0264483627204
4257,1521.8869017632242
4258,1531.7221662468514
4259,1540.1523929471032
4260,1544.367506297229
4261,1545.7725440806046
4262,1555.6078085642316
4263,1561.227959697733
4264,1569.6581863979848
4265,1592.13879093199
4266,1614.6193954659948
4267,1614.6193954659948
4268,1613.2143576826195
4269,1608.9992443324936
4270,1600.5690176322419
4271,1592.13879093199
4272,1582.3035264483626
4273,1562.6329974811083
4274,1533.1272040302267
4275,1514.8617128463475
4276,1489.5710327455918
4277,1467.0904282115869
4278,1474.1156171284633
4279,1482.5458438287153
4280,1513.4566750629722
4281,1527.5070528967253
4282,1533.1272040302267
4283,1530.317128463476
4284,1531.7221662468514
4285,1528.9120906801006
4286,1523.2919395465995
4287,1521.8869017632242
4288,1510.6465994962216
4289,1502.2163727959696
4290,1485.355919395466
4291,1462.875314861461
4292,1443.2047858942065
4293,1419.319143576826
4294,1388.4083123425692
4295,1364.5226700251887
4296,1354.6874055415617
4297,1353.2823677581864
4298,1360.3075566750629
4299,1363.1176322418135
4300,1374.357934508816
4301,1388.4083123425692
4302,1416.5090680100755
4303,1427.749370277078
4304,1438.9896725440806
4305,1447.4198992443323
4306,1451.6350125944584
4307,1455.8501259445843
4308,1450.2299748110831
4309,1448.8249370277078
4310,1455.8501259445843
4311,1462.875314861461
4312,1476.9256926952141
4313,1492.3811083123426
4314,1507.836523929471
4315,1516.2667506297228
4316,1534.532241813602
4317,1545.7725440806046
4318,1569.6581863979848
4319,1578.0884130982367
4320,1568.2531486146095
4321,1544.367506297229
4322,1540.1523929471032
4323,1537.3423173803526
4324,1544.367506297229
4325,1548.5826196473552
4326,1547.1775818639799
4327,1540.1523929471032
4328,1507.836523929471
4329,1467.0904282115869
4330,1448.8249370277078
4331,1448.8249370277078
4332,1458.660201511335
4333,1475.5206549118386
4334,1485.355919395466
4335,1496.5962216624685
4336,1499.406297229219
4337,1498.0012594458437
4338,1500.8113350125943
4339,1498.0012594458437
4340,1488.1659949622165
4341,1498.0012594458437
4342,1507.836523929471
4343,1523.2919395465995
4344,1527.5070528967253
4345,1535.9372795969773
4346,1534.532241813602
4347,1545.7725440806046
4348,1568.2531486146095
4349,1585.1136020151132
4350,1600.5690176322419
4351,1606.189168765743
4352,1608.9992443324936
4353,1603.3790931989925
4354,1600.5690176322419
4355,1599.1639798488663
4356,1607.5942065491183
4357,1606.189168765743
4358,1610.404282115869
4359,1631.4798488664987
4360,1648.3403022670025
4361,1648.3403022670025
4362,1631.4798488664987
4363,1614.6193954659948
4364,1601.9740554156172
4365,1583.708564231738
4366,1569.6581863979848
4367,1549.9876574307305
4368,1537.3423173803526
4369,1523.2919395465995
4370,1505.0264483627204
4371,1492.3811083123426
4372,1488.1659949622165
4373,1476.9256926952141
4374,1465.6853904282116
4375,1446.014861460957
4376,1420.7241813602013
4377,1424.9392947103274
4378,1444.6098236775817
4379,1464.2803526448363
4380,1486.7609571788412
4381,1505.0264483627204
4382,1520.4818639798489
4383,1519.0768261964736
4384,1478.3307304785894
4385,1422.1292191435768
4386,1365.9277078085643
4387,1311.131234256927
4388,1260.5498740554156
4389,1221.2088161209067
4390,1201.5382871536524
4391,1214.18362720403
4392,1228.2340050377834
4393,1247.9045340050377
4394,1267.575062972292
4395,1270.3851385390428
4396,1268.9801007556675
4397,1271.7901763224181
4398,1291.4607052896724
4399,1322.3715365239293
4400,1356.092443324937
4401,1385.5982367758186
4402,1420.7241813602013
4403,1443.2047858942065
4404,1469.9005037783375
4405,1502.2163727959696
4406,1542.9624685138538
4407,1586.5186397984885
4408,1618.834508816121
4409,1648.3403022670025
4410,1637.1
4411,1611.8093198992442
4412,1617.4294710327456
4413,1631.4798488664987
4414,1632.884886649874
4415,1620.2395465994962
4416,1596.3539042821158
4417,1571.06322418136
4418,1558.4178841309822
4419,1572.4682619647356
4420,1568.2531486146095
4421,1561.227959697733
4422,1542.9624685138538
4423,1496.5962216624685
4424,1462.875314861461
4425,1460.0652392947102
4426,1471.3055415617127
4427,1483.9508816120906
4428,1495.1911838790932
4429,1516.2667506297228
4430,1523.2919395465995
4431,1535.9372795969773
4432,1545.7725440806046
4433,1564.0380352644836
4434,1573.8732997481109
4435,1587.923677581864
4436,1579.493450881612
4437,1552.797732997481
4438,1542.9624685138538
4439,1540.1523929471032
4440,1534.532241813602
4441,1552.797732997481
4442,1569.6581863979848
4443,1624.454659949622
4444,1662.3906801007556
4445,1701.7317380352645
4446,1732.6425692695213
4447,1755.1231738035265
4448,1749.503022670025
4449,1725.617380352645
4450,1682.06120906801
4451,1645.530226700252
4452,1644.1251889168766
4453,1634.2899244332493
4454,1610.404282115869
4455,1583.708564231738
4456,1554.2027707808563
4457,1499.406297229219
4458,1431.964483627204
4459,1392.623425692695
4460,1375.7629722921913
4461,1378.5730478589421
4462,1389.8133501259445
4463,1395.4335012594458
4464,1408.0788413098237
4465,1417.9141057934507
4466,1424.9392947103274
4467,1427.749370277078
4468,1437.5846347607053
4469,1450.2299748110831
4470,1476.9256926952141
4471,1505.0264483627204
4472,1519.0768261964736
4473,1523.2919395465995
4474,1527.5070528967253
4475,1544.367506297229
4476,1569.6581863979848
4477,1614.6193954659948
4478,1662.3906801007556
4479,1698.921662468514
4480,1719.9972292191435
4481,1711.5670025188915
4482,1686.276322418136
4483,1639.9100755667505
4484,1599.1639798488663
4485,1566.8481108312342
4486,1531.7221662468514
4487,1530.317128463476
4488,1537.3423173803526
4489,1541.5574307304785
4490,1524.6969773299747
4491,1482.5458438287153
4492,1422.1292191435768
4493,1396.8385390428211
4494,1387.0032745591939
4495,1361.7125944584382
4496,1350.4722921914358
4497,1353.2823677581864
4498,1356.092443324937
4499,1361.7125944584382
4500,1377.1680100755666
4501,1401.053652392947
4502,1446.014861460957
4503,1509.2415617128463
4504,1575.2783375314862
4505,1620.2395465994962
4506,1632.884886649874
4507,1620.2395465994962
4508,1608.9992443324936
4509,1603.3790931989925
4510,1620.2395465994962
4511,1653.9604534005036
4512,1675.0360201511335
4513,1689.0863979848866
4514,1696.111586901763
4515,1691.8964735516372
4516,1687.6813602015113
4517,1679.2511335012593
4518,1665.2007556675062
4519,1635.6949622166246
4520,1596.3539042821158
4521,1571.06322418136
4522,1537.3423173803526
4523,1496.5962216624685
4524,1468.4954659949622
4525,1474.1156171284633
4526,1512.051637279597
4527,1562.6329974811083
4528,1603.3790931989925
4529,1646.9352644836272
4530,1669.4158690176323
4531,1670.8209068010076
4532,1656.7705289672544
4533,1637.1
4534,1616.0244332493703
4535,1606.189168765743
4536,1596.3539042821158
4537,1596.3539042821158
4538,1606.189168765743
4539,1614.6193954659948
4540,1641.315113350126
4541,1673.6309823677582
4542,1691.8964735516372
4543,1694.7065491183878
4544,1697.5166246851386
4545,1698.921662468514
4546,1691.8964735516372
4547,1675.0360201511335
4548,1656.7705289672544
4549,1641.315113350126
4550,1639.9100755667505
4551,1649.7453400503778
4552,1662.3906801007556
4553,1662.3906801007556
4554,1662.3906801007556
4555,1666.6057934508815
4556,1662.3906801007556
4557,1655.365491183879
4558,1655.365491183879
4559,1651.150377833753
4560,1646.9352644836272
4561,1645.530226700252
4562,1648.3403022670025
4563,1653.9604534005036
4564,1662.3906801007556
4565,1673.6309823677582
4566,1670.8209068010076
4567,1659.580604534005
4568,1653.9604534005036
4569,1653.9604534005036
4570,1642.720151133501
4571,1634.2899244332493
4572,1623.0496221662468
4573,1614.6193954659948
4574,1611.8093198992442
4575,1606.189168765743
4576,1600.5690176322419
4577,1576.6833753148615
4578,1571.06322418136
4579,1575.2783375314862
4580,1562.6329974811083
4581,1540.1523929471032
4582,1468.4954659949622
4583,1382.788161209068
4584,1336.4219143576825
4585,1318.1564231738034
4586,1313.9413098236776
4587,1319.5614609571787
4588,1351.877329974811
4589,1399.6486146095717
4590,1451.6350125944584
4591,1498.0012594458437
4592,1514.8617128463475
4593,1514.8617128463475
4594,1521.8869017632242
4595,1545.7725440806046
4596,1558.4178841309822
4597,1580.8984886649873
4598,1599.1639798488663
4599,1593.5438287153652
4600,1600.5690176322419
4601,1596.3539042821158
4602,1601.9740554156172
4603,1618.834508816121
4604,1628.6697732997482
4605,1617.4294710327456
4606,1594.9488664987405
4607,1569.6581863979848
4608,1552.797732997481
4609,1524.6969773299747
4610,1513.4566750629722
4611,1533.1272040302267
4612,1571.06322418136
4613,1608.9992443324936
4614,1608.9992443324936
4615,1585.1136020151132
4616,1559.8229219143577
4617,1555.6078085642316
4618,1558.4178841309822
4619,1578.0884130982367
4620,1617.4294710327456
4621,1665.2007556675062
4622,1687.6813602015113
4623,1703.1367758186398
4624,1703.1367758186398
4625,1676.4410579345088
4626,1646.9352644836272
4627,1634.2899244332493
4628,1646.9352644836272
4629,1684.8712846347607
4630,1725.617380352645
4631,1743.882871536524
4632,1767.768513853904
4633,1795.8692695214106
4634,1809.9196473551638
4635,1780.413853904282
4636,1743.882871536524
4637,1715.7821158690176
4638,1689.0863979848866
4639,1677.846095717884
4640,1670.8209068010076
4641,1662.3906801007556
4642,1673.6309823677582
4643,1686.276322418136
4644,1691.8964735516372
4645,1655.365491183879
4646,1585.1136020151132
4647,1542.9624685138538
4648,1514.8617128463475
4649,1505.0264483627204
4650,1505.0264483627204
4651,1507.836523929471
4652,1493.7861460957179
4653,1450.2299748110831
4654,1379.9780856423174
4655,1342.0420654911838
4656,1354.6874055415617
4657,1387.0032745591939
4658,1433.3695214105792
4659,1492.3811083123426
4660,1547.1775818639799
4661,1576.6833753148615
4662,1607.5942065491183
4663,1634.2899244332493
4664,1676.4410579345088
4665,1729.8324937027708
4666,1748.0979848866498
4667,1738.2627204030227
4668,1686.276322418136
4669,1627.2647355163726
4670,1601.9740554156172
4671,1594.9488664987405
4672,1587.923677581864
4673,1594.9488664987405
4674,1586.5186397984885
4675,1575.2783375314862
4676,1568.2531486146095
4677,1561.227959697733
4678,1572.4682619647356
4679,1603.3790931989925
4680,1623.0496221662468
4681,1597.758942065491
4682,1516.2667506297228
4683,1476.9256926952141
4684,1485.355919395466
4685,1485.355919395466
4686,1469.9005037783375
4687,1446.014861460957
4688,1450.2299748110831
4689,1481.14080604534
4690,1523.2919395465995
4691,1561.227959697733
4692,1590.7337531486146
4693,1597.758942065491
4694,1607.5942065491183
4695,1624.454659949622
4696,1649.7453400503778
4697,1623.0496221662468
4698,1580.8984886649873
4699,1578.0884130982367
4700,1613.2143576826195
4701,1680.6561712846346
4702,1753.7181360201512
4703,1811.324685138539
4704,1868.931234256927
4705,1890.0068010075565
4706,1880.1715365239295
4707,1856.285894206549
4708,1839.4254408060453
4709,1842.235516372796
4710,1845.0455919395465
4711,1850.665743073048
4712,1850.665743073048
4713,1846.4506297229218
4714,1821.159949622166
4715,1781.8188916876575
4716,1727.0224181360202
4717,1703.1367758186398
4718,1708.756926952141
4719,1743.882871536524
4720,1759.3382871536523
4721,1771.9836272040302
4722,1805.7045340050377
4723,1816.9448362720402
4724,1800.0843828715365
4725,1764.9584382871535
4726,1732.6425692695213
4727,1715.7821158690176
4728,1711.5670025188915
4729,1728.4274559193955
4730,1735.452644836272
4731,1717.187153652393
4732,1705.9468513853903
4733,1697.5166246851386
4734,1687.6813602015113
4735,1658.1755667506297
4736,1620.2395465994962
4737,1587.923677581864
4738,1559.8229219143577
4739,1517.6717884130983
4740,1479.7357682619647
4741,1467.0904282115869
4742,1475.5206549118386
4743,1489.5710327455918
4744,1506.4314861460957
4745,1535.9372795969773
4746,1562.6329974811083
4747,1586.5186397984885
4748,1611.8093198992442
4749,1637.1
4750,1651.150377833753
4751,1670.8209068010076
4752,1689.0863979848866
4753,1708.756926952141
4754,1727.0224181360202
4755,1738.2627204030227
4756,1760.7433249370276
4757,1788.844080604534
4758,1829.590176322418
4759,1849.2607052896724
4760,1830.9952141057934
4761,1798.6793450881612
4762,1764.9584382871535
4763,1739.667758186398
4764,1724.2123425692694
4765,1712.972040302267
4766,1715.7821158690176
4767,1731.237531486146
4768,1745.2879093198992
4769,1736.8576826196472
4770,1711.5670025188915
4771,1679.2511335012593
4772,1637.1
4773,1613.2143576826195
4774,1593.5438287153652
4775,1583.708564231738
4776,1573.8732997481109
4777,1576.6833753148615
4778,1573.8732997481109
4779,1571.06322418136
4780,1586.5186397984885
4781,1630.0748110831234
4782,1665.2007556675062
4783,1653.9604534005036
4784,1585.1136020151132
4785,1479.7357682619647
4786,1396.8385390428211
4787,1346.2571788413097
4788,1329.396725440806
4789,1340.6370277078086
4790,1350.4722921914358
4791,1372.9528967254407
4792,1408.0788413098237
4793,1462.875314861461
4794,1513.4566750629722
4795,1540.1523929471032
4796,1534.532241813602
4797,1517.6717884130983
4798,1500.8113350125943
4799,1498.0012594458437
4800,1523.2919395465995
4801,1580.8984886649873
4802,1632.884886649874
4803,1651.150377833753
4804,1641.315113350126
4805,1659.580604534005
4806,1693.3015113350125
4807,1735.452644836272
4808,1794.4642317380353
4809,1839.4254408060453
4810,1819.7549118387908
4811,1760.7433249370276
4812,1725.617380352645
4813,1731.237531486146
4814,1724.2123425692694
4815,1722.807304785894
4816,1727.0224181360202
4817,1734.0476070528966
4818,1722.807304785894
4819,1704.541813602015
4820,1694.7065491183878
4821,1679.2511335012593
4822,1652.5554156171283
4823,1639.9100755667505
4824,1623.0496221662468
4825,1603.3790931989925
4826,1578.0884130982367
4827,1564.0380352644836
4828,1541.5574307304785
4829,1513.4566750629722
4830,1514.8617128463475
4831,1551.3926952141057
4832,1607.5942065491183
4833,1649.7453400503778
4834,1676.4410579345088
4835,1693.3015113350125
4836,1708.756926952141
4837,1731.237531486146
4838,1757.933249370277
4839,1777.6037783375314
4840,1780.413853904282
4841,1776.198740554156
4842,1770.578589420655
4843,1784.628967254408
4844,1791.6541561712845
4845,1797.274307304786
4846,1783.2239294710328
4847,1756.5282115869018
4848,1734.0476070528966
4849,1712.972040302267
4850,1691.8964735516372
4851,1676.4410579345088
4852,1675.0360201511335
4853,1680.6561712846346
4854,1655.365491183879
4855,1625.8596977329973
4856,1625.8596977329973
4857,1618.834508816121
4858,1604.7841309823677
4859,1583.708564231738
4860,1551.3926952141057
4861,1523.2919395465995
4862,1499.406297229219
4863,1517.6717884130983
4864,1578.0884130982367
4865,1659.580604534005
4866,1715.7821158690176
4867,1710.1619647355164
4868,1669.4158690176323
4869,1610.404282115869
4870,1590.7337531486146
4871,1583.708564231738
4872,1576.6833753148615
4873,1579.493450881612
4874,1597.758942065491
4875,1637.1
4876,1682.06120906801
4877,1717.187153652393
4878,1735.452644836272
4879,1727.0224181360202
4880,1704.541813602015
4881,1691.8964735516372
4882,1687.6813602015113
4883,1703.1367758186398
4884,1721.4022670025188
4885,1745.2879093198992
4886,1783.2239294710328
4887,1815.539798488665
4888,1830.9952141057934
4889,1836.6153652392945
4890,1825.3750629722922
4891,1763.5534005037782
4892,1689.0863979848866
4893,1653.9604534005036
4894,1665.2007556675062
4895,1660.9856423173803
4896,1628.6697732997482
4897,1596.3539042821158
4898,1593.5438287153652
4899,1603.3790931989925
4900,1631.4798488664987
4901,1663.795717884131
4902,1690.491435768262
4903,1715.7821158690176
4904,1715.7821158690176
4905,1724.2123425692694
4906,1731.237531486146
4907,1777.6037783375314
4908,1815.539798488665
4909,1821.159949622166
4910,1790.2491183879092
4911,1759.3382871536523
4912,1749.503022670025
4913,1745.2879093198992
4914,1718.5921914357682
4915,1689.0863979848866
4916,1670.8209068010076
4917,1665.2007556675062
4918,1672.225944584383
4919,1679.2511335012593
4920,1666.6057934508815
4921,1641.315113350126
4922,1613.2143576826195
4923,1564.0380352644836
4924,1506.4314861460957
4925,1471.3055415617127
4926,1478.3307304785894
4927,1489.5710327455918
4928,1483.9508816120906
4929,1485.355919395466
4930,1496.5962216624685
4931,1520.4818639798489
4932,1524.6969773299747
4933,1458.660201511335
4934,1367.3327455919396
4935,1332.2068010075566
4936,1368.7377833753148
4937,1412.2939546599496
4938,1465.6853904282116
4939,1544.367506297229
4940,1616.0244332493703
4941,1669.4158690176323
4942,1691.8964735516372
4943,1718.5921914357682
4944,1742.4778337531486
4945,1738.2627204030227
4946,1719.9972292191435
4947,1725.617380352645
4948,1771.9836272040302
4949,1849.2607052896724
4950,1925.1327455919395
4951,1957.4486146095717
4952,1932.1579345088162
4953,1867.5261964735516
4954,1840.8304785894206
4955,1836.6153652392945
4956,1828.1851385390428
4957,1843.6405541561712
4958,1849.2607052896724
4959,1826.7801007556675
4960,1787.4390428211586
4961,1757.933249370277
4962,1749.503022670025
4963,1750.9080604534004
4964,1732.6425692695213
4965,1703.1367758186398
4966,1666.6057934508815
4967,1653.9604534005036
4968,1645.530226700252
4969,1644.1251889168766
4970,1638.5050377833752
4971,1635.6949622166246
4972,1620.2395465994962
4973,1623.0496221662468
4974,1613.2143576826195
4975,1627.2647355163726
4976,1646.9352644836272
4977,1665.2007556675062
4978,1696.111586901763
4979,1743.882871536524
4980,1777.6037783375314
4981,1762.148362720403
4982,1694.7065491183878
4983,1625.8596977329973
4984,1583.708564231738
4985,1557.012846347607
4986,1530.317128463476
4987,1523.2919395465995
4988,1540.1523929471032
4989,1557.012846347607
4990,1572.4682619647356
4991,1561.227959697733
4992,1538.747355163728
4993,1521.8869017632242
4994,1489.5710327455918
4995,1467.0904282115869
4996,1486.7609571788412
4997,1537.3423173803526
4998,1613.2143576826195
4999,1680.6561712846346
5000,1707.3518891687656
5001,1721.4022670025188
5002,1715.7821158690176
5003,1710.1619647355164
5004,1718.5921914357682
5005,1736.8576826196472
5006,1745.2879093198992
5007,1735.452644836272
5008,1732.6425692695213
5009,1760.7433249370276
5010,1784.628967254408
5011,1812.7297229219143
5012,1840.8304785894206
5013,1898.4370277078085
5014,1953.2335012594458
5015,1960.2586901763225
5016,1899.8420654911838
5017,1811.324685138539
5018,1742.4778337531486
5019,1707.3518891687656
5020,1680.6561712846346
5021,1653.9604534005036
5022,1641.315113350126
5023,1630.0748110831234
5024,1616.0244332493703
5025,1587.923677581864
5026,1580.8984886649873
5027,1600.5690176322419
5028,1617.4294710327456
5029,1603.3790931989925
5030,1530.317128463476
5031,1474.1156171284633
5032,1489.5710327455918
5033,1544.367506297229
5034,1592.13879093199
5035,1593.5438287153652
5036,1603.3790931989925
5037,1614.6193954659948
5038,1621.6445843828715
5039,1607.5942065491183
5040,1599.1639798488663
5041,1620.2395465994962
5042,1656.7705289672544
5043,1673.6309823677582
5044,1701.7317380352645
5045,1731.237531486146
5046,1745.2879093198992
5047,1745.2879093198992
5048,1727.0224181360202
5049,1689.0863979848866
5050,1665.2007556675062
5051,1687.6813602015113
5052,1718.5921914357682
5053,1718.5921914357682
5054,1675.0360201511335
5055,1616.0244332493703
5056,1589.3287153652393
5057,1580.8984886649873
5058,1575.2783375314862
5059,1576.6833753148615
5060,1573.8732997481109
5061,1569.6581863979848
5062,1576.6833753148615
5063,1597.758942065491
5064,1610.404282115869
5065,1610.404282115869
5066,1589.3287153652393
5067,1531.7221662468514
5068,1509.2415617128463
5069,1541.5574307304785
5070,1573.8732997481109
5071,1592.13879093199
5072,1599.1639798488663
5073,1590.7337531486146
5074,1589.3287153652393
5075,1596.3539042821158
5076,1608.9992443324936
5077,1637.1
5078,1601.9740554156172
5079,1547.1775818639799
5080,1533.1272040302267
5081,1576.6833753148615
5082,1613.2143576826195
5083,1596.3539042821158
5084,1502.2163727959696
5085,1408.0788413098237
5086,1379.9780856423174
5087,1394.0284634760706
5088,1422.1292191435768
5089,1441.7997481108312
5090,1430.5594458438286
5091,1389.8133501259445
5092,1361.7125944584382
5093,1333.6118387909319
